EpRewMean
-0.7724999785423279
-0.6924999952316284
-0.7524999976158142
-0.7524999976158142
-0.612500011920929
-0.5975000262260437
-0.6424999833106995
-0.6274999976158142
-0.6499999761581421
-0.48249998688697815
-0.7250000238418579
-0.6700000166893005
-0.5674999952316284
-0.4375
-0.8450000286102295
-0.5325000286102295
-0.5774999856948853
-0.8799999952316284
-0.6299999952316284
-0.75
-0.4950000047683716
-0.44999998807907104
-0.4749999940395355
-0.7049999833106995
-0.6825000047683716
-0.8224999904632568
-0.7275000214576721
-0.6899999976158142
-0.6150000095367432
-0.7024999856948853
-0.6875
-0.699999988079071
-0.637499988079071
-0.6800000071525574
-0.5600000023841858
-0.4074999988079071
-0.6150000095367432
-0.48500001430511475
-0.25999999046325684
-0.3474999964237213
-0.2199999988079071
-0.13750000298023224
-0.0625
0.032499998807907104
0.017500000074505806
0.004999999888241291
0.042500000447034836
-0.032499998807907104
0.10000000149011612
0.12999999523162842
0.2199999988079071
0.3125
0.29499998688697815
0.30000001192092896
0.20749999582767487
0.3499999940395355
0.3425000011920929
0.3474999964237213
0.4300000071525574
0.3375000059604645
0.42250001430511475
0.5
0.5299999713897705
0.5550000071525574
0.45750001072883606
0.6200000047683716
0.6625000238418579
0.6150000095367432
0.6850000023841858
0.6349999904632568
0.6424999833106995
0.6449999809265137
0.6324999928474426
0.6200000047683716
0.6225000023841858
0.8125
0.8349999785423279
0.7325000166893005
0.8974999785423279
0.8475000262260437
0.8650000095367432
0.8675000071525574
0.9350000023841858
0.8450000286102295
0.8824999928474426
0.9649999737739563
1.1100000143051147
1.0175000429153442
1.2024999856948853
1.1475000381469727
1.3025000095367432
1.127500057220459
1.184999942779541
1.375
1.3025000095367432
1.4924999475479126
1.4550000429153442
1.7699999809265137
1.5325000286102295
1.627500057220459
2.0250000953674316
1.8674999475479126
2.0199999809265137
1.8849999904632568
2.765000104904175
2.5174999237060547
3.432499885559082
3.2049999237060547
2.7874999046325684
3.1050000190734863
3.7750000953674316
3.7049999237060547
3.3125
3.4200000762939453
3.7825000286102295
3.424999952316284
4.059999942779541
3.9000000953674316
4.372499942779541
5.022500038146973
4.244999885559082
5.21999979019165
5.014999866485596
4.394999980926514
4.610000133514404
4.945000171661377
4.712500095367432
4.804999828338623
4.34499979019165
4.349999904632568
4.822500228881836
4.71750020980835
4.952499866485596
4.869999885559082
5.269999980926514
6.487500190734863
5.96999979019165
6.46750020980835
6.6875
6.440000057220459
6.847499847412109
5.824999809265137
6.447500228881836
5.932499885559082
6.137499809265137
7.110000133514404
6.465000152587891
6.360000133514404
7.042500019073486
7.177499771118164
8.057499885559082
8.107500076293945
8.77750015258789
8.042499542236328
7.707499980926514
7.684999942779541
8.614999771118164
9.09749984741211
8.444999694824219
9.100000381469727
9.8100004196167
8.835000038146973
9.357500076293945
10.137499809265137
10.677499771118164
11.024999618530273
11.232500076293945
11.052499771118164
11.27750015258789
11.744999885559082
11.142499923706055
11.332500457763672
12.197500228881836
12.15999984741211
11.109999656677246
11.364999771118164
10.592499732971191
11.1899995803833
11.6850004196167
11.65999984741211
12.112500190734863
12.46500015258789
11.957500457763672
12.524999618530273
13.02750015258789
12.017499923706055
12.547499656677246
13.489999771118164
13.087499618530273
13.199999809265137
13.265000343322754
14.117500305175781
14.217499732971191
13.112500190734863
13.837499618530273
14.237500190734863
14.897500038146973
14.7524995803833
14.225000381469727
15.172499656677246
15.930000305175781
15.630000114440918
15.545000076293945
16.049999237060547
16.887500762939453
15.960000038146973
16.162500381469727
16.979999542236328
18.030000686645508
18.399999618530273
18.059999465942383
17.459999084472656
17.40999984741211
17.467500686645508
17.237499237060547
17.40999984741211
17.452499389648438
17.299999237060547
17.207500457763672
17.395000457763672
18.207500457763672
18.735000610351562
17.952499389648438
17.4950008392334
17.3125
17.764999389648438
18.15250015258789
18.292499542236328
16.982500076293945
16.572500228881836
17.045000076293945
17.915000915527344
17.559999465942383
17.197500228881836
17.135000228881836
17.802499771118164
19.50749969482422
18.489999771118164
17.00749969482422
18.047500610351562
17.802499771118164
17.177499771118164
16.52750015258789
16.947500228881836
17.532499313354492
17.065000534057617
17.602500915527344
18.450000762939453
18.635000228881836
18.407499313354492
18.892499923706055
19.582500457763672
20.625
19.927499771118164
19.362499237060547
19.010000228881836
19.497499465942383
18.9424991607666
19.05500030517578
19.09749984741211
19.770000457763672
20.190000534057617
20.502500534057617
20.167499542236328
20.165000915527344
20.03499984741211
19.802499771118164
19.852500915527344
19.71500015258789
19.649999618530273
19.957500457763672
19.582500457763672
19.207500457763672
19.204999923706055
19.622499465942383
19.915000915527344
20.0625
20.1825008392334
19.3125
19.122499465942383
20.02750015258789
20.190000534057617
20.735000610351562
20.350000381469727
20.452499389648438
20.38249969482422
20.147499084472656
19.954999923706055
20.49250030517578
19.637500762939453
19.457500457763672
20.022499084472656
20.334999084472656
19.61750030517578
20.232500076293945
21.125
20.729999542236328
20.9375
21.989999771118164
21.4424991607666
21.09000015258789
20.274999618530273
20.912500381469727
21.452499389648438
20.832500457763672
20.71500015258789
20.479999542236328
20.02750015258789
20.287500381469727
20.412500381469727
19.922500610351562
20.3174991607666
20.639999389648438
20.737499237060547
20.790000915527344
21.079999923706055
21.407499313354492
21.71500015258789
21.572500228881836
20.735000610351562
20.18000030517578
20.96500015258789
21.1875
21.625
21.332500457763672
21.072500228881836
21.272499084472656
21.38249969482422
21.637500762939453
21.579999923706055
21.2450008392334
21.362499237060547
20.950000762939453
21.110000610351562
21.00749969482422
20.864999771118164
21.405000686645508
21.625
21.084999084472656
21.292499542236328
21.727500915527344
21.467500686645508
21.06999969482422
21.280000686645508
20.967500686645508
20.424999237060547
21.13249969482422
20.760000228881836
20.84000015258789
20.782499313354492
20.842500686645508
20.8799991607666
21.274999618530273
21.940000534057617
22.125
21.84000015258789
21.8125
22.232500076293945
21.69499969482422
21.627500534057617
22.157499313354492
21.65250015258789
21.457500457763672
21.672500610351562
21.450000762939453
21.397499084472656
21.262500762939453
21.774999618530273
21.854999542236328
22.122499465942383
21.885000228881836
21.649999618530273
21.68000030517578
21.967500686645508
21.084999084472656
20.77750015258789
20.542499542236328
20.797500610351562
20.934999465942383
21.327499389648438
21.287500381469727
21.397499084472656
21.489999771118164
21.582500457763672
20.977500915527344
21.05500030517578
21.537500381469727
20.732500076293945
21.49250030517578
21.727500915527344
21.84000015258789
21.747499465942383
21.155000686645508
21.017499923706055
21.072500228881836
21.3700008392334
21.954999923706055
21.639999389648438
21.510000228881836
21.3125
21.5
21.81999969482422
22.06999969482422
21.604999542236328
21.354999542236328
21.28499984741211
21.8174991607666
21.739999771118164
21.767499923706055
21.579999923706055
21.575000762939453
21.530000686645508
21.645000457763672
22.012500762939453
21.889999389648438
21.309999465942383
21.537500381469727
21.010000228881836
21.274999618530273
21.0674991607666
21.582500457763672
21.489999771118164
21.719999313354492
21.892499923706055
22.377500534057617
22.485000610351562
22.235000610351562
22.239999771118164
22.15999984741211
22.172500610351562
21.764999389648438
21.93000030517578
22.545000076293945
22.372499465942383
22.267499923706055
22.454999923706055
22.329999923706055
22.90250015258789
22.735000610351562
22.577499389648438
21.677499771118164
21.354999542236328
21.614999771118164
22.239999771118164
21.622499465942383
21.579999923706055
21.690000534057617
21.967500686645508
22.092500686645508
22.377500534057617
22.327499389648438
22.075000762939453
22.514999389648438
22.38249969482422
22.5625
21.997499465942383
21.854999542236328
22.450000762939453
22.1200008392334
21.940000534057617
21.547500610351562
21.97249984741211
22.2549991607666
22.899999618530273
22.735000610351562
23.102500915527344
23.059999465942383
23.325000762939453
22.770000457763672
22.700000762939453
22.407499313354492
22.907499313354492
22.477500915527344
22.795000076293945
22.709999084472656
22.584999084472656
22.309999465942383
22.69499969482422
22.52750015258789
21.864999771118164
22.142499923706055
21.877500534057617
22.247499465942383
22.209999084472656
22.75749969482422
22.6200008392334
21.989999771118164
22.1200008392334
22.25
22.137500762939453
22.767499923706055
23.107500076293945
22.475000381469727
21.850000381469727
22.037500381469727
22.045000076293945
21.6924991607666
21.827499389648438
22.450000762939453
21.797500610351562
21.63249969482422
22.25
22.657499313354492
23.204999923706055
23.3174991607666
23.135000228881836
23.174999237060547
22.982500076293945
22.21500015258789
21.809999465942383
22.010000228881836
22.229999542236328
21.947500228881836
21.924999237060547
22.102500915527344
22.1924991607666
22.262500762939453
21.857500076293945
22.030000686645508
22.6200008392334
22.78499984741211
22.657499313354492
22.315000534057617
22.3075008392334
22.19499969482422
22.344999313354492
22.625
22.719999313354492
22.592500686645508
22.94499969482422
22.450000762939453
21.8700008392334
22.012500762939453
22.47249984741211
22.78499984741211
23.059999465942383
22.575000762939453
22.572500228881836
22.017499923706055
22.022499084472656
21.967500686645508
22.489999771118164
22.52750015258789
23.170000076293945
23.0625
22.725000381469727
22.25
21.462499618530273
22.3125
23.11750030517578
22.717500686645508
22.197500228881836
22.282499313354492
22.427499771118164
22.22249984741211
22.524999618530273
22.25
22.327499389648438
22.350000381469727
23.052499771118164
23.517499923706055
23.440000534057617
22.895000457763672
22.604999542236328
22.2450008392334
22.274999618530273
22.712499618530273
22.639999389648438
22.897499084472656
22.862499237060547
22.850000381469727
23.0049991607666
23.604999542236328
23.520000457763672
22.90250015258789
22.75749969482422
23.262500762939453
23.52750015258789
23.1299991607666
23.24250030517578
22.397499084472656
22.200000762939453
23.042499542236328
23.489999771118164
23.4325008392334
23.280000686645508
22.88249969482422
23.052499771118164
23.337499618530273
23.415000915527344
23.69499969482422
23.46500015258789
22.61750030517578
22.44499969482422
22.782499313354492
22.96500015258789
22.782499313354492
23.225000381469727
23.4325008392334
23.389999389648438
24.225000381469727
24.31999969482422
23.907499313354492
23.022499084472656
22.454999923706055
22.862499237060547
23.315000534057617
23.52750015258789
23.667499542236328
23.107500076293945
22.764999389648438
22.482500076293945
23.012500762939453
23.260000228881836
23.299999237060547
23.334999084472656
23.565000534057617
23.337499618530273
23.325000762939453
24.094999313354492
23.647499084472656
23.392499923706055
23.049999237060547
23.989999771118164
24.032499313354492
24.135000228881836
23.75749969482422
23.547500610351562
23.5674991607666
23.1299991607666
23.502500534057617
23.357500076293945
23.052499771118164
22.8075008392334
23.44499969482422
24.11750030517578
23.43000030517578
22.795000076293945
23.03499984741211
23.274999618530273
23.174999237060547
23.397499084472656
23.412500381469727
23.260000228881836
23.05500030517578
23.325000762939453
22.934999465942383
23.167499542236328
23.889999389648438
24.21500015258789
24.25
24.177499771118164
23.967500686645508
23.295000076293945
23.200000762939453
23.530000686645508
24.094999313354492
24.459999084472656
24.475000381469727
24.424999237060547
23.712499618530273
23.422500610351562
24.045000076293945
24.1299991607666
23.782499313354492
23.727500915527344
24.667499542236328
24.962499618530273
25.207500457763672
24.912500381469727
24.690000534057617
24.9424991607666
24.13249969482422
23.69499969482422
23.725000381469727
23.787500381469727
23.645000457763672
24.357500076293945
24.3799991607666
24.30500030517578
23.895000457763672
24.040000915527344
24.040000915527344
24.204999923706055
24.107500076293945
24.03499984741211
23.9375
23.725000381469727
23.170000076293945
23.795000076293945
24.63249969482422
24.612499237060547
24.665000915527344
24.3700008392334
24.25749969482422
24.049999237060547
24.28499984741211
23.9375
23.700000762939453
24.072500228881836
24.122499465942383
24.354999542236328
25.212499618530273
25.082500457763672
24.8075008392334
24.770000457763672
24.8125
24.950000762939453
25.47249984741211
25.59000015258789
24.9325008392334
24.424999237060547
24.454999923706055
24.934999465942383
24.510000228881836
24.4424991607666
24.28499984741211
24.407499313354492
24.292499542236328
24.592500686645508
24.81999969482422
25.15999984741211
25.0
25.270000457763672
25.517499923706055
25.407499313354492
24.985000610351562
24.725000381469727
24.524999618530273
24.837499618530273
24.93000030517578
24.247499465942383
24.475000381469727
24.922500610351562
24.767499923706055
25.002500534057617
24.895000457763672
24.829999923706055
24.290000915527344
24.239999771118164
23.940000534057617
24.31999969482422
23.952499389648438
24.09749984741211
23.677499771118164
24.139999389648438
24.602500915527344
24.5575008392334
24.309999465942383
24.577499389648438
24.520000457763672
24.202499389648438
24.362499237060547
25.165000915527344
25.302499771118164
24.565000534057617
24.332500457763672
24.927499771118164
24.989999771118164
24.592500686645508
24.857500076293945
24.977500915527344
24.885000228881836
24.959999084472656
24.637500762939453
24.43000030517578
24.717500686645508
24.6875
23.877500534057617
23.49250030517578
23.905000686645508
24.475000381469727
24.707500457763672
25.037500381469727
25.287500381469727
24.75
24.4424991607666
24.50749969482422
24.399999618530273
24.212499618530273
24.045000076293945
24.565000534057617
24.292499542236328
24.3125
24.157499313354492
24.857500076293945
24.862499237060547
24.655000686645508
24.2549991607666
24.107500076293945
24.0
24.145000457763672
24.434999465942383
24.885000228881836
24.552499771118164
24.392499923706055
24.545000076293945
24.934999465942383
24.602500915527344
24.11750030517578
24.792499542236328
24.950000762939453
25.34000015258789
25.227500915527344
24.517499923706055
24.752500534057617
24.649999618530273
24.542499542236328
24.3075008392334
24.90250015258789
25.102500915527344
25.3125
25.332500457763672
25.247499465942383
24.950000762939453
24.700000762939453
24.827499389648438
25.1299991607666
24.93000030517578
24.102500915527344
24.147499084472656
23.512500762939453
23.667499542236328
24.002500534057617
24.010000228881836
24.212499618530273
24.610000610351562
24.582500457763672
24.797500610351562
24.427499771118164
24.332500457763672
25.024999618530273
25.09000015258789
24.459999084472656
24.229999542236328
24.30500030517578
24.21500015258789
24.422500610351562
24.6924991607666
25.02750015258789
25.237499237060547
24.607500076293945
24.604999542236328
24.352500915527344
24.670000076293945
24.68000030517578
24.622499465942383
24.332500457763672
24.649999618530273
24.912500381469727
25.065000534057617
24.815000534057617
24.65250015258789
24.727500915527344
24.735000610351562
24.962499618530273
25.1200008392334
24.877500534057617
24.440000534057617
24.704999923706055
24.790000915527344
24.752500534057617
24.71500015258789
24.832500457763672
25.184999465942383
25.077499389648438
24.8700008392334
24.850000381469727
24.950000762939453
24.639999389648438
25.022499084472656
24.514999389648438
24.397499084472656
24.487499237060547
24.709999084472656
24.952499389648438
25.43000030517578
25.399999618530273
25.4325008392334
25.467500686645508
24.927499771118164
24.584999084472656
24.540000915527344
24.97249984741211
24.639999389648438
24.774999618530273
24.832500457763672
24.84749984741211
24.795000076293945
24.262500762939453
23.75
24.042499542236328
24.09000015258789
24.81999969482422
25.482500076293945
25.030000686645508
24.762500762939453
24.8174991607666
25.075000762939453
24.77750015258789
24.53499984741211
24.020000457763672
24.43000030517578
24.662500381469727
25.13249969482422
24.959999084472656
24.979999542236328
25.56999969482422
25.295000076293945
24.53499984741211
24.30500030517578
24.517499923706055
24.385000228881836
24.625
24.642499923706055
25.024999618530273
25.094999313354492
24.327499389648438
24.337499618530273
24.270000457763672
24.25
24.514999389648438
24.172500610351562
24.520000457763672
24.625
25.2549991607666
24.982500076293945
24.584999084472656
24.77750015258789
24.274999618530273
24.1924991607666
24.237499237060547
24.122499465942383
24.06999969482422
24.735000610351562
25.295000076293945
25.15999984741211
24.610000610351562
24.434999465942383
24.417499542236328
24.622499465942383
24.212499618530273
24.497499465942383
24.387500762939453
24.149999618530273
24.770000457763672
24.96500015258789
25.177499771118164
25.087499618530273
25.18000030517578
24.28499984741211
24.36750030517578
25.014999389648438
25.075000762939453
24.9375
24.540000915527344
24.522499084472656
24.412500381469727
24.65250015258789
24.90250015258789
24.747499465942383
24.049999237060547
24.1924991607666
23.989999771118164
24.11750030517578
24.502500534057617
24.627500534057617
24.75749969482422
24.837499618530273
25.34000015258789
25.020000457763672
24.700000762939453
24.854999542236328
25.125
25.1924991607666
24.642499923706055
24.537500381469727
23.897499084472656
24.594999313354492
25.002500534057617
24.922500610351562
25.262500762939453
25.022499084472656
25.670000076293945
25.059999465942383
24.540000915527344
24.822500228881836
25.145000457763672
24.764999389648438
24.387500762939453
24.6875
25.315000534057617
25.4325008392334
25.06999969482422
24.822500228881836
24.80500030517578
25.042499542236328
25.06999969482422
25.24250030517578
26.139999389648438
25.55500030517578
24.514999389648438
24.43000030517578
24.985000610351562
24.334999084472656
24.772499084472656
24.735000610351562
24.522499084472656
24.387500762939453
24.892499923706055
24.7450008392334
24.327499389648438
24.610000610351562
24.287500381469727
24.7450008392334
24.412500381469727
24.764999389648438
25.032499313354492
25.049999237060547
24.97249984741211
25.184999465942383
25.15999984741211
24.607500076293945
24.047500610351562
24.260000228881836
24.417499542236328
24.94499969482422
24.895000457763672
23.947500228881836
23.852500915527344
24.459999084472656
24.907499313354492
25.487499237060547
25.30500030517578
25.142499923706055
25.24250030517578
25.38249969482422
25.2549991607666
25.077499389648438
24.915000915527344
25.350000381469727
25.274999618530273
25.422500610351562
25.264999389648438
25.3700008392334
25.079999923706055
24.7450008392334
24.770000457763672
24.71500015258789
25.042499542236328
25.065000534057617
24.75749969482422
24.545000076293945
24.6825008392334
24.90999984741211
25.087499618530273
24.65250015258789
25.040000915527344
25.389999389648438
25.477500915527344
25.1200008392334
25.065000534057617
25.217500686645508
24.392499923706055
24.237499237060547
24.19499969482422
24.799999237060547
24.670000076293945
24.512500762939453
24.502500534057617
24.56999969482422
24.55500030517578
24.3125
24.549999237060547
24.229999542236328
23.354999542236328
23.542499542236328
24.4375
25.4950008392334
25.530000686645508
25.334999084472656
24.700000762939453
25.219999313354492
25.162500381469727
24.90250015258789
24.842500686645508
24.854999542236328
25.34000015258789
24.825000762939453
24.790000915527344
25.082500457763672
25.3700008392334
25.040000915527344
24.412500381469727
24.13249969482422
24.147499084472656
24.28499984741211
24.672500610351562
24.532499313354492
24.899999618530273
25.2450008392334
25.434999465942383
25.139999389648438
24.74250030517578
24.50749969482422
24.3700008392334
24.302499771118164
24.487499237060547
24.072500228881836
23.844999313354492
24.325000762939453
24.21500015258789
24.260000228881836
24.417499542236328
24.247499465942383
24.337499618530273
24.344999313354492
24.27750015258789
24.489999771118164
24.927499771118164
24.5
24.392499923706055
24.6299991607666
24.684999465942383
24.375
24.155000686645508
24.357500076293945
24.47249984741211
24.072500228881836
23.475000381469727
23.5575008392334
23.537500381469727
23.537500381469727
23.767499923706055
23.71500015258789
23.612499237060547
24.020000457763672
23.922500610351562
24.0674991607666
24.24250030517578
23.952499389648438
24.174999237060547
24.24250030517578
23.399999618530273
23.959999084472656
23.947500228881836
24.225000381469727
24.137500762939453
24.344999313354492
24.467500686645508
24.487499237060547
24.459999084472656
24.739999771118164
24.540000915527344
24.55500030517578
24.5625
25.15999984741211
24.850000381469727
24.7450008392334
24.290000915527344
24.344999313354492
24.174999237060547
24.2549991607666
24.252500534057617
24.797500610351562
24.934999465942383
25.517499923706055
25.704999923706055
25.537500381469727
25.725000381469727
25.417499542236328
25.092500686645508
24.8174991607666
24.079999923706055
23.959999084472656
24.59749984741211
25.012500762939453
25.4424991607666
25.15250015258789
24.752500534057617
24.545000076293945
24.302499771118164
24.1825008392334
24.252500534057617
24.922500610351562
24.510000228881836
24.25749969482422
25.09000015258789
25.479999542236328
25.0674991607666
24.9424991607666
25.112499237060547
24.979999542236328
25.06999969482422
25.03499984741211
24.88249969482422
24.225000381469727
24.514999389648438
24.864999771118164
24.8075008392334
24.59749984741211
24.549999237060547
24.399999618530273
24.877500534057617
24.907499313354492
24.725000381469727
24.360000610351562
24.63249969482422
24.579999923706055
24.90250015258789
24.825000762939453
24.469999313354492
24.707500457763672
25.075000762939453
24.997499465942383
24.905000686645508
24.8700008392334
24.75749969482422
25.157499313354492
24.8799991607666
24.299999237060547
24.469999313354492
24.7450008392334
25.0049991607666
25.0575008392334
25.6200008392334
25.212499618530273
25.232500076293945
25.315000534057617
25.34000015258789
25.107500076293945
25.302499771118164
25.0
24.957500457763672
25.032499313354492
24.8075008392334
24.575000762939453
24.850000381469727
25.13249969482422
24.979999542236328
24.954999923706055
24.99250030517578
25.1299991607666
24.875
24.587499618530273
24.575000762939453
25.100000381469727
25.032499313354492
25.030000686645508
24.71500015258789
24.36750030517578
23.892499923706055
23.837499618530273
23.9950008392334
24.079999923706055
24.104999542236328
24.412500381469727
25.19499969482422
25.137500762939453
24.892499923706055
24.537500381469727
24.822500228881836
24.872499465942383
24.655000686645508
24.795000076293945
24.75749969482422
25.31999969482422
25.8700008392334
25.587499618530273
25.229999542236328
25.052499771118164
24.922500610351562
24.772499084472656
24.860000610351562
24.5674991607666
24.899999618530273
24.8799991607666
25.030000686645508
25.11750030517578
24.99250030517578
24.760000228881836
25.165000915527344
24.940000534057617
25.0
25.012500762939453
25.252500534057617
25.315000534057617
25.262500762939453
24.637500762939453
25.032499313354492
25.282499313354492
25.022499084472656
25.020000457763672
24.802499771118164
25.012500762939453
25.219999313354492
25.087499618530273
24.43000030517578
24.5674991607666
24.56999969482422
24.3125
24.517499923706055
24.767499923706055
25.584999084472656
25.087499618530273
24.469999313354492
24.399999618530273
25.274999618530273
25.857500076293945
25.517499923706055
25.212499618530273
24.579999923706055
24.287500381469727
24.377500534057617
24.4950008392334
24.747499465942383
24.707500457763672
24.8799991607666
24.8700008392334
24.86750030517578
25.364999771118164
25.207500457763672
25.292499542236328
25.162500381469727
24.90999984741211
24.797500610351562
25.15999984741211
25.274999618530273
25.405000686645508
24.997499465942383
24.864999771118164
24.844999313354492
24.927499771118164
24.397499084472656
24.385000228881836
24.59000015258789
25.087499618530273
25.542499542236328
25.25749969482422
24.982500076293945
25.112499237060547
24.68000030517578
25.232500076293945
24.670000076293945
24.594999313354492
24.747499465942383
25.06999969482422
24.522499084472656
24.424999237060547
24.375
24.822500228881836
24.825000762939453
24.954999923706055
25.127500534057617
24.977500915527344
25.137500762939453
25.357500076293945
24.97249984741211
24.832500457763672
24.399999618530273
24.40999984741211
24.315000534057617
24.420000076293945
24.77750015258789
25.077499389648438
24.767499923706055
24.842500686645508
24.842500686645508
25.002500534057617
24.665000915527344
24.9325008392334
25.079999923706055
25.102500915527344
25.197500228881836
25.065000534057617
24.809999465942383
25.059999465942383
24.9325008392334
24.952499389648438
24.790000915527344
24.457500457763672
24.3799991607666
24.927499771118164
24.815000534057617
24.88249969482422
25.21500015258789
25.487499237060547
25.8075008392334
25.899999618530273
25.309999465942383
24.979999542236328
25.559999465942383
25.61750030517578
25.99250030517578
25.90250015258789
25.7450008392334
25.282499313354492
25.295000076293945
25.299999237060547
25.395000457763672
25.232500076293945
25.18000030517578
24.927499771118164
25.022499084472656
25.38249969482422
25.915000915527344
25.434999465942383
25.135000228881836
24.717500686645508
24.967500686645508
25.270000457763672
25.8700008392334
25.982500076293945
26.030000686645508
25.49250030517578
25.540000915527344
25.295000076293945
25.002500534057617
24.8125
25.0625
25.69499969482422
25.28499984741211
25.037500381469727
24.94499969482422
25.052499771118164
25.697500228881836
25.104999542236328
25.467500686645508
25.622499465942383
25.354999542236328
25.142499923706055
25.05500030517578
25.267499923706055
24.829999923706055
25.417499542236328
25.200000762939453
25.012500762939453
24.329999923706055
23.99250030517578
24.375
24.61750030517578
25.05500030517578
25.047500610351562
24.829999923706055
24.547500610351562
23.9325008392334
24.157499313354492
24.59749984741211
24.559999465942383
24.389999389648438
25.114999771118164
25.047500610351562
24.702499389648438
25.13249969482422
25.0625
24.8799991607666
25.190000534057617
24.7450008392334
24.907499313354492
24.959999084472656
24.897499084472656
25.272499084472656
25.362499237060547
25.34749984741211
25.227500915527344
25.922500610351562
25.56999969482422
25.287500381469727
25.219999313354492
25.142499923706055
24.927499771118164
24.887500762939453
24.889999389648438
24.717500686645508
24.86750030517578
25.292499542236328
24.645000457763672
24.607500076293945
24.545000076293945
25.0575008392334
24.927499771118164
24.90999984741211
25.485000610351562
25.31999969482422
24.887500762939453
24.604999542236328
24.905000686645508
25.135000228881836
24.9424991607666
25.045000076293945
25.18000030517578
25.267499923706055
25.729999542236328
26.207500457763672
25.80500030517578
25.375
24.8700008392334
25.100000381469727
24.895000457763672
24.97249984741211
25.075000762939453
25.482500076293945
25.954999923706055
25.815000534057617
25.655000686645508
25.74250030517578
25.577499389648438
25.392499923706055
25.514999389648438
25.167499542236328
24.662500381469727
25.09000015258789
24.917499542236328
25.219999313354492
25.420000076293945
25.622499465942383
25.059999465942383
25.25
25.360000610351562
25.229999542236328
24.677499771118164
25.017499923706055
24.8125
25.082500457763672
25.142499923706055
24.69499969482422
