EpRewMean
10.0
3.672131061553955
4.219948768615723
2.799999952316284
3.4749999046325684
3.1500000953674316
3.6500000953674316
3.450000047683716
3.575000047683716
3.3499999046325684
3.299999952316284
3.200000047683716
3.4749999046325684
2.9749999046325684
3.174999952316284
3.0250000953674316
2.924999952316284
3.299999952316284
3.5999999046325684
3.375
3.125
3.075000047683716
3.7249999046325684
3.625
3.625
3.700000047683716
3.0999999046325684
3.0
3.200000047683716
3.575000047683716
3.4749999046325684
3.25
3.325000047683716
3.0999999046325684
3.2750000953674316
3.4749999046325684
3.424999952316284
3.2249999046325684
2.9749999046325684
3.174999952316284
3.375
3.424999952316284
3.5250000953674316
3.6500000953674316
3.549999952316284
3.6500000953674316
3.424999952316284
3.5250000953674316
3.575000047683716
3.125
3.0999999046325684
3.375
3.25
3.375
3.875
3.9000000953674316
3.8499999046325684
3.8499999046325684
3.5
3.2750000953674316
3.375
3.4749999046325684
3.4749999046325684
3.674999952316284
3.674999952316284
3.5250000953674316
3.674999952316284
3.625
3.575000047683716
3.5999999046325684
3.700000047683716
3.875
3.9000000953674316
4.025000095367432
3.625
3.3499999046325684
3.375
3.325000047683716
3.424999952316284
3.4749999046325684
3.25
3.5999999046325684
3.75
3.450000047683716
3.1500000953674316
3.700000047683716
3.799999952316284
3.3499999046325684
3.2249999046325684
3.4000000953674316
3.6500000953674316
3.799999952316284
3.924999952316284
3.8499999046325684
3.825000047683716
3.75
3.700000047683716
3.424999952316284
3.3499999046325684
3.325000047683716
3.4000000953674316
3.325000047683716
3.299999952316284
3.4749999046325684
3.5250000953674316
3.5
3.200000047683716
2.950000047683716
3.424999952316284
3.2750000953674316
3.625
4.074999809265137
3.9000000953674316
3.625
3.625
3.825000047683716
3.5
3.6500000953674316
3.6500000953674316
3.674999952316284
3.375
3.7750000953674316
3.875
3.6500000953674316
3.700000047683716
3.375
3.325000047683716
3.424999952316284
3.674999952316284
3.75
3.575000047683716
3.25
3.049999952316284
3.3499999046325684
3.625
3.5999999046325684
3.549999952316284
3.75
3.7249999046325684
3.625
3.75
3.7249999046325684
3.799999952316284
3.75
3.700000047683716
3.674999952316284
3.674999952316284
3.6500000953674316
3.700000047683716
3.575000047683716
3.875
3.7249999046325684
3.549999952316284
3.8499999046325684
3.799999952316284
3.7249999046325684
3.25
3.575000047683716
3.875
3.549999952316284
3.4749999046325684
3.575000047683716
3.4000000953674316
3.5250000953674316
3.549999952316284
3.25
3.325000047683716
3.825000047683716
3.924999952316284
3.75
3.5
3.5
3.7750000953674316
4.025000095367432
3.7750000953674316
3.575000047683716
3.5999999046325684
3.7249999046325684
3.575000047683716
3.375
3.549999952316284
4.199999809265137
4.074999809265137
4.074999809265137
4.349999904632568
3.8499999046325684
3.875
3.8499999046325684
3.3499999046325684
3.2750000953674316
3.700000047683716
3.575000047683716
3.5250000953674316
3.8499999046325684
3.875
3.799999952316284
3.9749999046325684
3.6500000953674316
3.424999952316284
3.6500000953674316
3.6500000953674316
3.875
4.224999904632568
4.224999904632568
3.8499999046325684
3.700000047683716
3.8499999046325684
4.074999809265137
4.224999904632568
3.924999952316284
3.700000047683716
4.025000095367432
4.300000190734863
4.300000190734863
4.25
3.9000000953674316
3.6500000953674316
3.6500000953674316
3.875
3.825000047683716
4.074999809265137
4.175000190734863
3.9749999046325684
4.0
3.75
3.950000047683716
4.224999904632568
4.199999809265137
3.9000000953674316
3.5250000953674316
3.825000047683716
3.9749999046325684
3.9000000953674316
4.125
4.449999809265137
3.9000000953674316
3.825000047683716
3.9749999046325684
3.9749999046325684
4.150000095367432
4.050000190734863
4.375
4.150000095367432
4.275000095367432
4.349999904632568
4.050000190734863
3.75
3.9000000953674316
4.275000095367432
4.349999904632568
4.349999904632568
4.400000095367432
4.050000190734863
3.825000047683716
3.799999952316284
4.25
4.349999904632568
4.199999809265137
4.0
3.9749999046325684
3.9749999046325684
4.224999904632568
4.425000190734863
4.324999809265137
4.349999904632568
4.375
5.125
4.574999809265137
4.550000190734863
4.275000095367432
4.050000190734863
4.349999904632568
4.150000095367432
4.175000190734863
4.275000095367432
4.050000190734863
4.349999904632568
4.675000190734863
4.375
4.349999904632568
4.275000095367432
4.199999809265137
4.349999904632568
4.175000190734863
4.224999904632568
4.324999809265137
4.349999904632568
4.300000190734863
3.9749999046325684
3.674999952316284
4.300000190734863
4.650000095367432
4.550000190734863
4.349999904632568
4.074999809265137
4.324999809265137
4.5
4.300000190734863
4.150000095367432
4.224999904632568
4.300000190734863
4.400000095367432
4.724999904632568
5.050000190734863
4.775000095367432
4.349999904632568
4.074999809265137
4.0
3.9000000953674316
3.674999952316284
3.75
4.224999904632568
4.275000095367432
4.574999809265137
4.775000095367432
4.724999904632568
4.650000095367432
4.349999904632568
4.574999809265137
5.025000095367432
5.0
4.849999904632568
4.525000095367432
4.400000095367432
4.675000190734863
4.75
4.824999809265137
4.550000190734863
4.699999809265137
4.525000095367432
4.5
4.5
4.849999904632568
4.724999904632568
4.949999809265137
5.099999904632568
4.400000095367432
4.275000095367432
4.449999809265137
4.525000095367432
4.25
4.300000190734863
4.625
4.675000190734863
4.75
4.675000190734863
4.875
4.75
4.800000190734863
4.724999904632568
4.824999809265137
4.525000095367432
4.5
4.800000190734863
4.900000095367432
5.0
4.974999904632568
4.849999904632568
4.474999904632568
4.900000095367432
4.650000095367432
4.449999809265137
4.5
4.724999904632568
4.699999809265137
4.699999809265137
4.25
4.550000190734863
4.724999904632568
4.824999809265137
4.800000190734863
4.724999904632568
4.925000190734863
4.425000190734863
4.900000095367432
4.949999809265137
4.925000190734863
5.125
5.150000095367432
5.224999904632568
5.125
4.650000095367432
4.800000190734863
5.175000190734863
5.150000095367432
4.849999904632568
4.900000095367432
5.375
5.375
4.800000190734863
4.699999809265137
4.949999809265137
5.474999904632568
5.025000095367432
5.224999904632568
5.150000095367432
5.074999809265137
5.300000190734863
5.150000095367432
5.050000190734863
5.150000095367432
5.25
5.0
4.625
4.675000190734863
5.574999809265137
5.724999904632568
5.050000190734863
4.650000095367432
4.875
4.849999904632568
4.800000190734863
5.150000095367432
5.400000095367432
5.125
5.199999809265137
5.199999809265137
5.025000095367432
5.5
5.75
5.275000095367432
5.224999904632568
5.224999904632568
5.5
5.525000095367432
5.550000190734863
5.375
5.324999809265137
5.074999809265137
5.099999904632568
5.199999809265137
4.875
5.050000190734863
4.875
4.849999904632568
5.400000095367432
5.224999904632568
5.474999904632568
5.699999809265137
5.625
5.675000190734863
5.675000190734863
5.599999904632568
5.324999809265137
5.224999904632568
5.400000095367432
5.275000095367432
5.275000095367432
5.400000095367432
5.324999809265137
5.699999809265137
5.699999809265137
5.175000190734863
5.25
5.099999904632568
5.699999809265137
5.474999904632568
5.775000095367432
5.5
5.050000190734863
5.449999809265137
5.650000095367432
5.425000190734863
5.324999809265137
5.925000190734863
5.074999809265137
5.275000095367432
5.300000190734863
5.625
5.724999904632568
5.25
5.550000190734863
5.449999809265137
5.300000190734863
5.574999809265137
5.599999904632568
5.150000095367432
5.324999809265137
5.224999904632568
5.199999809265137
5.574999809265137
5.974999904632568
5.550000190734863
5.5
5.75
5.849999904632568
5.699999809265137
5.650000095367432
5.400000095367432
5.650000095367432
5.875
5.550000190734863
5.375
5.400000095367432
5.474999904632568
5.275000095367432
5.375
5.574999809265137
5.900000095367432
6.050000190734863
5.599999904632568
5.5
5.900000095367432
5.425000190734863
5.75
5.5
5.550000190734863
5.824999809265137
5.900000095367432
5.875
6.175000190734863
5.800000190734863
5.324999809265137
5.550000190734863
5.925000190734863
5.5
5.550000190734863
5.849999904632568
5.425000190734863
5.849999904632568
5.925000190734863
5.724999904632568
5.925000190734863
5.650000095367432
5.675000190734863
5.925000190734863
5.800000190734863
5.525000095367432
5.675000190734863
5.949999809265137
5.775000095367432
5.925000190734863
6.0
5.925000190734863
5.474999904632568
6.175000190734863
5.599999904632568
5.699999809265137
5.800000190734863
5.599999904632568
5.949999809265137
5.849999904632568
5.974999904632568
5.824999809265137
5.824999809265137
5.925000190734863
6.074999809265137
5.775000095367432
5.75
5.949999809265137
5.849999904632568
5.75
6.375
6.099999904632568
6.300000190734863
6.224999904632568
6.050000190734863
5.474999904632568
5.474999904632568
6.125
5.849999904632568
6.050000190734863
6.175000190734863
5.974999904632568
6.025000095367432
5.974999904632568
5.849999904632568
5.375
5.775000095367432
5.925000190734863
5.550000190734863
5.75
6.275000095367432
6.0
5.675000190734863
6.0
6.025000095367432
5.800000190734863
5.550000190734863
6.050000190734863
6.025000095367432
6.525000095367432
6.199999809265137
6.050000190734863
6.349999904632568
6.599999904632568
6.199999809265137
5.574999809265137
5.724999904632568
5.974999904632568
6.099999904632568
6.025000095367432
5.900000095367432
6.125
6.074999809265137
6.5
6.375
5.949999809265137
6.449999809265137
6.349999904632568
6.699999809265137
6.75
6.125
5.849999904632568
5.650000095367432
5.974999904632568
5.974999904632568
5.699999809265137
6.599999904632568
6.25
6.099999904632568
6.449999809265137
6.275000095367432
5.900000095367432
5.800000190734863
6.224999904632568
6.099999904632568
6.050000190734863
6.025000095367432
5.875
5.800000190734863
6.349999904632568
6.050000190734863
6.25
6.550000190734863
6.224999904632568
6.199999809265137
6.375
6.699999809265137
6.349999904632568
6.474999904632568
5.800000190734863
6.025000095367432
5.974999904632568
5.699999809265137
6.074999809265137
6.224999904632568
5.900000095367432
6.0
5.699999809265137
5.974999904632568
6.400000095367432
6.275000095367432
6.099999904632568
6.175000190734863
5.949999809265137
6.050000190734863
6.050000190734863
6.125
6.474999904632568
6.449999809265137
6.75
6.5
6.425000190734863
6.300000190734863
6.375
6.800000190734863
6.25
5.875
6.349999904632568
6.400000095367432
5.724999904632568
5.900000095367432
6.199999809265137
6.025000095367432
5.699999809265137
6.275000095367432
6.449999809265137
6.449999809265137
6.425000190734863
6.400000095367432
6.199999809265137
6.849999904632568
6.349999904632568
6.175000190734863
6.474999904632568
6.425000190734863
6.375
6.375
6.425000190734863
6.474999904632568
6.550000190734863
6.300000190734863
5.925000190734863
6.449999809265137
6.5
5.974999904632568
6.25
6.675000190734863
6.675000190734863
6.349999904632568
6.300000190734863
6.150000095367432
6.525000095367432
6.050000190734863
6.449999809265137
6.324999809265137
6.550000190734863
6.375
6.224999904632568
6.175000190734863
6.5
6.699999809265137
6.525000095367432
6.625
6.849999904632568
6.324999809265137
6.574999809265137
7.199999809265137
6.25
6.900000095367432
6.625
6.050000190734863
6.875
6.5
6.5
6.550000190734863
6.724999904632568
6.5
6.425000190734863
6.675000190734863
6.675000190734863
6.324999809265137
6.699999809265137
6.449999809265137
6.449999809265137
6.75
6.699999809265137
6.974999904632568
6.650000095367432
6.724999904632568
6.75
7.0
7.175000190734863
6.724999904632568
6.650000095367432
6.574999809265137
6.949999809265137
6.974999904632568
6.925000190734863
6.75
6.974999904632568
6.625
6.875
6.650000095367432
6.574999809265137
6.449999809265137
6.349999904632568
7.199999809265137
6.699999809265137
6.724999904632568
6.824999809265137
6.724999904632568
6.75
6.824999809265137
6.974999904632568
6.650000095367432
7.199999809265137
7.099999904632568
6.824999809265137
6.75
6.550000190734863
6.400000095367432
6.925000190734863
7.474999904632568
7.175000190734863
6.849999904632568
6.550000190734863
6.449999809265137
6.974999904632568
7.074999809265137
6.75
6.824999809265137
6.824999809265137
6.75
7.050000190734863
6.824999809265137
6.949999809265137
6.875
6.775000095367432
7.150000095367432
7.0
7.074999809265137
6.824999809265137
7.099999904632568
7.025000095367432
6.949999809265137
7.525000095367432
7.449999809265137
7.074999809265137
6.925000190734863
7.0
6.800000190734863
6.800000190734863
6.925000190734863
6.550000190734863
6.675000190734863
7.125
6.599999904632568
6.800000190734863
7.099999904632568
7.025000095367432
6.849999904632568
6.599999904632568
6.75
7.224999904632568
6.949999809265137
7.099999904632568
7.150000095367432
6.824999809265137
7.400000095367432
7.425000190734863
7.050000190734863
7.224999904632568
6.900000095367432
7.125
7.474999904632568
7.025000095367432
7.425000190734863
7.275000095367432
6.800000190734863
7.074999809265137
7.0
7.224999904632568
6.474999904632568
6.974999904632568
7.199999809265137
7.25
7.099999904632568
7.0
7.150000095367432
7.125
7.25
6.974999904632568
6.849999904632568
7.375
7.625
7.449999809265137
7.300000190734863
7.125
6.875
7.474999904632568
7.5
7.25
7.025000095367432
7.0
7.199999809265137
7.425000190734863
7.150000095367432
7.25
7.349999904632568
7.150000095367432
7.224999904632568
7.550000190734863
7.224999904632568
7.300000190734863
7.550000190734863
7.050000190734863
7.125
7.300000190734863
7.425000190734863
7.025000095367432
6.875
7.525000095367432
7.625
7.275000095367432
7.474999904632568
7.550000190734863
6.875
7.375
7.574999809265137
7.574999809265137
7.5
7.349999904632568
7.474999904632568
7.150000095367432
7.275000095367432
7.199999809265137
8.0
7.525000095367432
7.5
7.400000095367432
7.675000190734863
7.449999809265137
7.824999809265137
7.449999809265137
7.75
7.550000190734863
7.525000095367432
7.675000190734863
7.300000190734863
7.425000190734863
7.375
7.525000095367432
7.800000190734863
7.300000190734863
7.550000190734863
7.275000095367432
7.224999904632568
7.5
7.300000190734863
7.449999809265137
7.25
7.574999809265137
7.675000190734863
7.375
7.699999809265137
7.675000190734863
7.550000190734863
7.675000190734863
7.125
7.25
7.425000190734863
7.375
7.550000190734863
7.675000190734863
7.800000190734863
7.224999904632568
7.849999904632568
7.699999809265137
7.699999809265137
8.024999618530273
7.525000095367432
7.025000095367432
7.349999904632568
7.650000095367432
7.425000190734863
7.025000095367432
7.425000190734863
7.300000190734863
7.800000190734863
7.775000095367432
7.400000095367432
7.949999809265137
8.074999809265137
7.974999904632568
7.5
7.599999904632568
7.625
7.474999904632568
7.675000190734863
7.974999904632568
7.400000095367432
7.75
7.675000190734863
7.474999904632568
7.75
7.275000095367432
7.300000190734863
7.625
7.724999904632568
7.875
7.5
8.125
7.5
7.550000190734863
7.974999904632568
7.675000190734863
8.0
7.550000190734863
7.599999904632568
7.599999904632568
7.849999904632568
7.324999809265137
7.599999904632568
7.800000190734863
7.574999809265137
7.824999809265137
7.800000190734863
7.699999809265137
7.974999904632568
7.974999904632568
7.949999809265137
7.525000095367432
8.024999618530273
7.800000190734863
7.900000095367432
7.349999904632568
7.5
7.900000095367432
7.824999809265137
7.925000190734863
7.349999904632568
7.775000095367432
7.974999904632568
7.949999809265137
7.849999904632568
8.550000190734863
7.824999809265137
8.050000190734863
7.75
8.100000381469727
7.849999904632568
7.724999904632568
8.050000190734863
7.849999904632568
7.675000190734863
7.724999904632568
8.100000381469727
7.724999904632568
7.675000190734863
8.149999618530273
8.024999618530273
8.0
7.875
8.399999618530273
8.199999809265137
7.875
8.074999809265137
7.800000190734863
7.625
7.949999809265137
8.149999618530273
8.199999809265137
7.949999809265137
7.775000095367432
7.75
7.925000190734863
8.050000190734863
8.125
7.974999904632568
8.0
8.0
7.824999809265137
7.625
7.349999904632568
8.274999618530273
8.175000190734863
8.050000190734863
8.175000190734863
8.100000381469727
8.25
8.100000381469727
8.050000190734863
7.800000190734863
7.900000095367432
7.949999809265137
8.300000190734863
7.949999809265137
7.925000190734863
7.75
7.425000190734863
8.0
7.900000095367432
7.625
8.125
8.0
7.824999809265137
7.875
7.625
7.849999904632568
7.75
7.824999809265137
8.0
7.875
7.824999809265137
8.350000381469727
7.925000190734863
8.125
8.024999618530273
8.274999618530273
8.100000381469727
8.149999618530273
8.175000190734863
8.175000190734863
8.25
8.274999618530273
8.274999618530273
7.800000190734863
8.074999809265137
7.925000190734863
7.875
8.199999809265137
8.024999618530273
7.925000190734863
8.274999618530273
8.5
7.974999904632568
8.074999809265137
8.25
8.175000190734863
8.300000190734863
8.274999618530273
8.0
8.675000190734863
8.274999618530273
8.149999618530273
7.875
8.199999809265137
7.949999809265137
7.949999809265137
7.900000095367432
8.199999809265137
8.324999809265137
8.274999618530273
7.925000190734863
8.475000381469727
8.274999618530273
8.350000381469727
8.425000190734863
8.350000381469727
8.574999809265137
8.324999809265137
8.175000190734863
8.475000381469727
8.375
8.600000381469727
7.974999904632568
8.375
8.050000190734863
8.074999809265137
8.75
8.550000190734863
8.324999809265137
8.449999809265137
8.100000381469727
8.25
7.849999904632568
8.125
8.225000381469727
8.0
8.074999809265137
8.475000381469727
7.900000095367432
8.300000190734863
8.074999809265137
8.399999618530273
8.100000381469727
8.350000381469727
8.375
8.024999618530273
8.350000381469727
8.199999809265137
8.675000190734863
8.050000190734863
8.399999618530273
8.024999618530273
8.300000190734863
8.274999618530273
8.425000190734863
8.449999809265137
8.625
7.974999904632568
8.125
8.524999618530273
8.274999618530273
8.324999809265137
8.5
8.550000190734863
7.949999809265137
8.5
8.375
8.25
8.350000381469727
8.475000381469727
8.25
8.600000381469727
8.375
8.050000190734863
7.949999809265137
8.274999618530273
8.5
8.774999618530273
8.449999809265137
8.199999809265137
8.475000381469727
8.199999809265137
8.5
8.350000381469727
8.300000190734863
8.074999809265137
8.25
8.425000190734863
8.399999618530273
8.375
8.199999809265137
8.074999809265137
8.274999618530273
8.425000190734863
8.524999618530273
8.5
8.574999809265137
8.425000190734863
8.824999809265137
8.449999809265137
8.199999809265137
8.600000381469727
8.225000381469727
7.949999809265137
8.199999809265137
8.375
8.324999809265137
8.350000381469727
8.375
8.399999618530273
8.600000381469727
8.25
8.399999618530273
8.574999809265137
8.574999809265137
8.399999618530273
8.475000381469727
8.699999809265137
8.625
8.574999809265137
8.875
8.25
8.274999618530273
8.399999618530273
8.425000190734863
8.800000190734863
8.75
8.425000190734863
8.774999618530273
8.824999809265137
8.425000190734863
8.475000381469727
8.274999618530273
8.550000190734863
8.725000381469727
8.625
8.600000381469727
8.725000381469727
8.725000381469727
8.425000190734863
8.375
8.350000381469727
8.199999809265137
8.675000190734863
8.850000381469727
8.324999809265137
8.475000381469727
8.550000190734863
8.774999618530273
8.550000190734863
8.949999809265137
8.524999618530273
8.375
8.475000381469727
8.550000190734863
8.399999618530273
8.324999809265137
8.550000190734863
8.5
8.399999618530273
8.725000381469727
8.75
8.600000381469727
8.425000190734863
8.375
8.550000190734863
8.649999618530273
8.850000381469727
8.774999618530273
8.675000190734863
8.425000190734863
8.425000190734863
8.550000190734863
8.475000381469727
8.350000381469727
8.324999809265137
8.574999809265137
8.5
8.574999809265137
8.774999618530273
8.300000190734863
8.675000190734863
8.125
8.800000190734863
8.725000381469727
8.75
8.899999618530273
8.574999809265137
8.675000190734863
8.600000381469727
8.824999809265137
8.824999809265137
8.824999809265137
8.75
8.574999809265137
8.550000190734863
8.824999809265137
8.449999809265137
8.725000381469727
8.675000190734863
8.649999618530273
8.5
8.949999809265137
8.350000381469727
8.774999618530273
8.600000381469727
8.899999618530273
8.524999618530273
8.824999809265137
8.675000190734863
8.75
8.625
8.600000381469727
8.600000381469727
8.675000190734863
8.949999809265137
8.875
8.824999809265137
8.699999809265137
8.925000190734863
8.574999809265137
8.899999618530273
8.375
8.675000190734863
8.899999618530273
8.824999809265137
8.725000381469727
8.774999618530273
8.800000190734863
8.875
8.75
8.5
8.824999809265137
8.899999618530273
8.75
8.675000190734863
8.949999809265137
8.975000381469727
8.324999809265137
8.725000381469727
8.675000190734863
8.550000190734863
8.75
8.774999618530273
8.899999618530273
8.850000381469727
8.774999618530273
8.824999809265137
8.75
8.324999809265137
8.824999809265137
8.699999809265137
8.800000190734863
8.850000381469727
8.574999809265137
8.274999618530273
8.5
8.5
8.649999618530273
8.600000381469727
8.699999809265137
8.524999618530273
8.600000381469727
8.800000190734863
8.800000190734863
9.074999809265137
9.074999809265137
8.774999618530273
8.824999809265137
8.899999618530273
8.725000381469727
8.850000381469727
8.975000381469727
8.975000381469727
8.600000381469727
9.050000190734863
8.75
9.024999618530273
8.725000381469727
8.975000381469727
8.800000190734863
8.875
8.824999809265137
9.024999618530273
8.949999809265137
8.824999809265137
9.0
8.649999618530273
8.949999809265137
9.0
8.824999809265137
9.050000190734863
8.824999809265137
8.899999618530273
9.024999618530273
8.75
9.100000381469727
8.824999809265137
8.850000381469727
8.975000381469727
8.824999809265137
8.75
8.699999809265137
8.449999809265137
8.925000190734863
8.949999809265137
8.774999618530273
8.975000381469727
8.925000190734863
9.024999618530273
9.024999618530273
8.949999809265137
9.100000381469727
9.050000190734863
8.925000190734863
8.975000381469727
9.149999618530273
9.100000381469727
8.800000190734863
9.050000190734863
9.0
9.199999809265137
8.824999809265137
8.675000190734863
9.050000190734863
8.75
8.925000190734863
9.125
8.699999809265137
9.074999809265137
8.899999618530273
8.975000381469727
9.050000190734863
8.949999809265137
8.875
8.800000190734863
9.074999809265137
8.899999618530273
9.0
9.100000381469727
9.050000190734863
8.949999809265137
8.850000381469727
9.074999809265137
9.100000381469727
8.925000190734863
8.850000381469727
9.074999809265137
8.824999809265137
9.100000381469727
9.350000381469727
9.0
9.050000190734863
8.824999809265137
9.274999618530273
9.0
9.050000190734863
8.774999618530273
8.25
9.125
8.675000190734863
9.175000190734863
8.899999618530273
8.925000190734863
8.975000381469727
9.074999809265137
8.875
8.824999809265137
8.75
8.800000190734863
9.175000190734863
8.850000381469727
9.149999618530273
9.024999618530273
9.024999618530273
8.850000381469727
9.024999618530273
9.199999809265137
9.074999809265137
9.050000190734863
9.149999618530273
8.975000381469727
9.100000381469727
9.050000190734863
9.100000381469727
8.975000381469727
9.225000381469727
8.975000381469727
8.949999809265137
8.949999809265137
9.199999809265137
8.975000381469727
8.850000381469727
9.0
9.199999809265137
9.100000381469727
9.100000381469727
9.074999809265137
9.199999809265137
9.0
9.175000190734863
9.149999618530273
9.425000190734863
9.524999618530273
9.050000190734863
9.100000381469727
9.175000190734863
9.225000381469727
9.199999809265137
9.125
8.875
9.074999809265137
9.0
9.024999618530273
9.0
9.300000190734863
9.324999809265137
9.050000190734863
9.149999618530273
8.774999618530273
9.175000190734863
9.074999809265137
9.149999618530273
9.225000381469727
9.225000381469727
9.175000190734863
8.975000381469727
8.75
9.125
8.875
9.350000381469727
9.024999618530273
8.949999809265137
9.074999809265137
8.949999809265137
9.074999809265137
9.074999809265137
9.199999809265137
9.274999618530273
9.25
9.100000381469727
