EpRewMean
2.6530611515045166
3.4285714626312256
3.8111886978149414
3.7750000953674316
3.6500000953674316
3.875
4.349999904632568
4.425000190734863
4.574999809265137
4.625
4.925000190734863
4.550000190734863
5.074999809265137
4.875
5.0
5.0
5.199999809265137
5.125
5.050000190734863
5.349999904632568
5.400000095367432
5.150000095367432
5.349999904632568
5.400000095367432
5.125
5.449999809265137
5.775000095367432
5.900000095367432
6.0
5.724999904632568
6.050000190734863
5.775000095367432
5.75
5.550000190734863
5.425000190734863
5.75
5.625
6.074999809265137
6.0
5.900000095367432
5.625
5.875
5.449999809265137
5.525000095367432
5.400000095367432
6.025000095367432
6.150000095367432
6.025000095367432
6.050000190734863
5.425000190734863
5.949999809265137
4.974999904632568
6.025000095367432
5.775000095367432
5.949999809265137
6.224999904632568
6.150000095367432
6.050000190734863
5.574999809265137
6.125
5.824999809265137
5.925000190734863
6.175000190734863
5.875
6.375
6.125
6.224999904632568
6.099999904632568
5.900000095367432
6.474999904632568
6.425000190734863
6.275000095367432
6.449999809265137
6.074999809265137
6.400000095367432
6.5
6.150000095367432
6.150000095367432
6.849999904632568
6.5
6.324999809265137
6.324999809265137
6.800000190734863
6.050000190734863
6.375
6.599999904632568
6.0
6.400000095367432
6.625
6.599999904632568
6.525000095367432
6.550000190734863
6.125
5.974999904632568
6.599999904632568
6.675000190734863
6.625
6.75
6.525000095367432
6.775000095367432
6.625
6.449999809265137
6.724999904632568
6.599999904632568
6.775000095367432
6.474999904632568
6.625
6.574999809265137
7.25
6.275000095367432
6.0
6.400000095367432
6.925000190734863
6.724999904632568
7.074999809265137
6.699999809265137
7.050000190734863
6.550000190734863
6.849999904632568
6.75
6.724999904632568
7.050000190734863
6.974999904632568
7.099999904632568
6.949999809265137
6.849999904632568
7.449999809265137
6.275000095367432
7.050000190734863
7.074999809265137
6.949999809265137
7.074999809265137
7.150000095367432
7.349999904632568
7.074999809265137
7.050000190734863
6.75
6.849999904632568
6.925000190734863
7.224999904632568
7.425000190734863
7.425000190734863
7.25
7.599999904632568
7.099999904632568
7.474999904632568
6.974999904632568
7.400000095367432
7.775000095367432
7.224999904632568
7.675000190734863
7.449999809265137
7.224999904632568
7.0
7.800000190734863
7.150000095367432
7.224999904632568
7.525000095367432
7.574999809265137
7.625
7.25
7.550000190734863
7.824999809265137
7.474999904632568
7.550000190734863
7.75
7.75
7.824999809265137
7.974999904632568
7.425000190734863
7.949999809265137
7.724999904632568
7.675000190734863
7.675000190734863
7.75
7.775000095367432
7.5
7.925000190734863
7.974999904632568
7.800000190734863
7.849999904632568
7.5
8.074999809265137
7.925000190734863
7.875
7.974999904632568
8.050000190734863
7.824999809265137
8.274999618530273
7.824999809265137
7.675000190734863
8.024999618530273
7.525000095367432
7.949999809265137
8.524999618530273
7.949999809265137
8.0
7.900000095367432
8.0
8.0
8.125
8.199999809265137
7.775000095367432
7.849999904632568
8.0
8.375
8.225000381469727
7.900000095367432
7.925000190734863
8.175000190734863
8.274999618530273
8.125
8.425000190734863
8.175000190734863
8.199999809265137
8.0
8.449999809265137
8.25
8.375
8.25
8.300000190734863
8.125
8.350000381469727
8.375
8.125
8.199999809265137
8.300000190734863
8.324999809265137
8.0
8.149999618530273
8.074999809265137
8.350000381469727
8.350000381469727
8.399999618530273
8.449999809265137
8.425000190734863
8.350000381469727
8.425000190734863
8.399999618530273
8.350000381469727
8.25
8.425000190734863
8.350000381469727
8.149999618530273
8.699999809265137
8.5
8.600000381469727
8.75
8.899999618530273
8.274999618530273
8.399999618530273
8.699999809265137
8.399999618530273
8.649999618530273
8.550000190734863
8.199999809265137
8.350000381469727
8.725000381469727
8.199999809265137
8.800000190734863
8.199999809265137
8.399999618530273
8.399999618530273
8.574999809265137
8.225000381469727
8.25
8.649999618530273
8.5
8.5
8.675000190734863
8.550000190734863
8.225000381469727
8.449999809265137
8.725000381469727
8.600000381469727
8.774999618530273
8.675000190734863
8.649999618530273
8.600000381469727
8.574999809265137
8.399999618530273
8.350000381469727
8.675000190734863
8.675000190734863
8.699999809265137
8.625
8.649999618530273
8.699999809265137
8.824999809265137
8.375
8.449999809265137
8.625
8.649999618530273
8.524999618530273
8.350000381469727
8.725000381469727
8.875
8.925000190734863
8.574999809265137
8.625
8.699999809265137
8.725000381469727
8.375
9.0
8.875
8.774999618530273
8.800000190734863
8.899999618530273
8.574999809265137
8.850000381469727
8.675000190734863
8.774999618530273
8.75
8.699999809265137
9.100000381469727
8.399999618530273
8.625
8.675000190734863
8.899999618530273
8.699999809265137
8.649999618530273
8.899999618530273
8.875
8.774999618530273
8.899999618530273
8.425000190734863
8.699999809265137
9.0
8.574999809265137
8.649999618530273
8.625
8.399999618530273
8.824999809265137
8.600000381469727
8.975000381469727
8.574999809265137
8.350000381469727
8.449999809265137
8.574999809265137
9.274999618530273
8.899999618530273
8.975000381469727
8.625
8.800000190734863
8.699999809265137
8.75
8.725000381469727
8.75
8.800000190734863
9.125
9.024999618530273
8.899999618530273
8.949999809265137
8.699999809265137
9.125
9.024999618530273
8.324999809265137
8.975000381469727
8.774999618530273
8.800000190734863
8.774999618530273
8.800000190734863
8.725000381469727
9.0
8.949999809265137
8.875
8.824999809265137
8.800000190734863
8.75
8.524999618530273
8.850000381469727
8.975000381469727
8.824999809265137
9.050000190734863
8.574999809265137
8.899999618530273
9.100000381469727
8.875
8.850000381469727
8.725000381469727
8.625
8.75
9.100000381469727
9.100000381469727
8.574999809265137
8.75
8.5
8.800000190734863
8.5
8.949999809265137
9.0
8.850000381469727
9.199999809265137
8.774999618530273
8.899999618530273
9.024999618530273
8.850000381469727
9.175000190734863
8.875
8.899999618530273
8.725000381469727
8.699999809265137
8.899999618530273
9.125
8.774999618530273
8.649999618530273
8.800000190734863
9.074999809265137
8.800000190734863
8.649999618530273
9.149999618530273
8.949999809265137
9.0
8.824999809265137
8.899999618530273
8.949999809265137
9.0
8.675000190734863
8.899999618530273
9.074999809265137
8.800000190734863
8.75
9.024999618530273
8.725000381469727
8.850000381469727
8.925000190734863
9.0
9.0
8.699999809265137
8.925000190734863
8.925000190734863
9.149999618530273
9.149999618530273
8.649999618530273
9.0
8.824999809265137
9.0
8.850000381469727
8.824999809265137
8.850000381469727
8.875
8.875
8.975000381469727
8.800000190734863
8.800000190734863
8.675000190734863
8.725000381469727
8.875
9.100000381469727
9.125
9.050000190734863
8.800000190734863
8.725000381469727
8.850000381469727
8.949999809265137
8.5
9.024999618530273
8.675000190734863
8.875
8.949999809265137
8.75
8.875
8.949999809265137
9.175000190734863
9.300000190734863
8.899999618530273
8.949999809265137
8.850000381469727
8.925000190734863
9.100000381469727
9.324999809265137
8.925000190734863
9.024999618530273
9.024999618530273
8.949999809265137
8.899999618530273
8.949999809265137
8.850000381469727
9.024999618530273
9.074999809265137
9.125
8.875
8.725000381469727
8.850000381469727
9.225000381469727
9.024999618530273
9.050000190734863
9.0
8.850000381469727
9.050000190734863
8.975000381469727
8.850000381469727
9.199999809265137
8.949999809265137
9.024999618530273
8.975000381469727
8.925000190734863
9.125
9.324999809265137
8.875
9.0
8.899999618530273
9.149999618530273
8.699999809265137
8.675000190734863
8.925000190734863
8.899999618530273
9.024999618530273
8.975000381469727
8.949999809265137
8.875
8.774999618530273
8.925000190734863
8.850000381469727
8.975000381469727
8.625
8.774999618530273
8.850000381469727
8.675000190734863
8.949999809265137
9.100000381469727
9.125
9.0
9.0
9.100000381469727
9.050000190734863
9.125
9.225000381469727
9.149999618530273
8.975000381469727
9.0
8.949999809265137
8.975000381469727
8.975000381469727
9.149999618530273
9.024999618530273
9.175000190734863
9.050000190734863
9.125
8.774999618530273
8.975000381469727
8.75
9.149999618530273
9.125
9.175000190734863
8.850000381469727
9.100000381469727
9.024999618530273
8.75
9.050000190734863
9.0
8.774999618530273
9.024999618530273
9.175000190734863
8.899999618530273
9.25
9.25
8.925000190734863
9.050000190734863
9.149999618530273
8.949999809265137
9.149999618530273
9.274999618530273
8.949999809265137
9.175000190734863
9.125
9.125
8.649999618530273
8.949999809265137
9.25
9.199999809265137
9.0
9.225000381469727
9.074999809265137
9.225000381469727
8.899999618530273
8.649999618530273
9.225000381469727
9.050000190734863
8.875
9.074999809265137
9.125
9.050000190734863
9.050000190734863
9.199999809265137
8.925000190734863
9.300000190734863
9.125
8.899999618530273
8.774999618530273
9.175000190734863
9.199999809265137
8.574999809265137
8.850000381469727
9.050000190734863
9.100000381469727
8.975000381469727
8.449999809265137
9.125
8.75
9.0
8.800000190734863
8.975000381469727
9.050000190734863
9.050000190734863
8.925000190734863
9.225000381469727
8.899999618530273
9.050000190734863
9.074999809265137
8.949999809265137
9.024999618530273
9.324999809265137
8.850000381469727
9.0
9.149999618530273
9.074999809265137
9.074999809265137
9.225000381469727
9.300000190734863
9.074999809265137
9.050000190734863
9.050000190734863
9.149999618530273
9.149999618530273
8.899999618530273
8.875
8.975000381469727
9.100000381469727
8.925000190734863
9.100000381469727
9.25
9.024999618530273
9.024999618530273
8.949999809265137
8.675000190734863
8.925000190734863
8.975000381469727
9.125
9.300000190734863
9.050000190734863
9.199999809265137
9.175000190734863
9.175000190734863
9.100000381469727
9.024999618530273
9.0
9.149999618530273
8.875
9.175000190734863
8.774999618530273
9.125
9.100000381469727
9.100000381469727
9.199999809265137
9.175000190734863
9.100000381469727
9.175000190734863
8.975000381469727
8.899999618530273
9.199999809265137
8.899999618530273
9.199999809265137
9.0
9.324999809265137
8.925000190734863
8.975000381469727
9.100000381469727
8.850000381469727
8.774999618530273
9.175000190734863
8.824999809265137
9.0
9.050000190734863
9.300000190734863
9.475000381469727
9.175000190734863
9.125
9.100000381469727
8.949999809265137
9.225000381469727
8.875
9.100000381469727
9.024999618530273
9.125
9.399999618530273
9.024999618530273
8.949999809265137
9.074999809265137
9.125
9.149999618530273
9.300000190734863
8.975000381469727
9.225000381469727
8.925000190734863
9.050000190734863
9.274999618530273
9.0
9.024999618530273
8.975000381469727
8.949999809265137
9.024999618530273
8.899999618530273
9.024999618530273
9.199999809265137
8.949999809265137
9.225000381469727
9.125
9.274999618530273
9.050000190734863
8.774999618530273
8.725000381469727
9.074999809265137
9.125
9.149999618530273
9.125
9.074999809265137
9.175000190734863
9.175000190734863
9.300000190734863
9.199999809265137
9.175000190734863
8.899999618530273
9.0
9.050000190734863
8.774999618530273
8.850000381469727
9.425000190734863
9.074999809265137
9.0
9.350000381469727
9.25
9.149999618530273
9.25
9.125
9.25
9.0
9.149999618530273
9.125
9.25
9.100000381469727
9.125
9.324999809265137
8.875
9.225000381469727
9.050000190734863
9.324999809265137
9.074999809265137
9.100000381469727
9.050000190734863
9.199999809265137
9.225000381469727
8.975000381469727
9.375
9.225000381469727
9.399999618530273
9.399999618530273
9.175000190734863
9.199999809265137
9.175000190734863
9.449999809265137
9.199999809265137
9.324999809265137
9.375
9.125
8.824999809265137
9.25
8.875
9.125
9.25
9.274999618530273
9.199999809265137
9.425000190734863
9.0
9.100000381469727
9.125
9.350000381469727
9.300000190734863
9.149999618530273
9.324999809265137
9.199999809265137
9.399999618530273
9.100000381469727
9.5
9.274999618530273
9.074999809265137
9.199999809265137
9.175000190734863
9.274999618530273
9.175000190734863
9.25
9.175000190734863
9.350000381469727
9.125
9.375
8.925000190734863
9.199999809265137
9.399999618530273
9.425000190734863
9.024999618530273
9.274999618530273
9.050000190734863
9.274999618530273
9.050000190734863
9.274999618530273
9.100000381469727
9.0
9.074999809265137
9.25
9.375
9.324999809265137
9.375
9.399999618530273
9.274999618530273
9.274999618530273
9.0
9.324999809265137
9.350000381469727
9.350000381469727
9.225000381469727
8.949999809265137
9.149999618530273
9.425000190734863
9.050000190734863
9.149999618530273
9.199999809265137
9.225000381469727
9.125
9.175000190734863
9.175000190734863
9.125
9.25
9.074999809265137
9.300000190734863
9.050000190734863
9.100000381469727
9.225000381469727
9.199999809265137
9.300000190734863
9.175000190734863
9.050000190734863
9.350000381469727
9.149999618530273
9.149999618530273
9.050000190734863
9.100000381469727
9.175000190734863
9.149999618530273
9.274999618530273
9.175000190734863
9.175000190734863
9.175000190734863
8.899999618530273
9.274999618530273
9.399999618530273
9.125
9.375
8.850000381469727
9.375
9.050000190734863
9.300000190734863
9.399999618530273
9.274999618530273
9.024999618530273
9.074999809265137
9.25
9.0
9.050000190734863
9.149999618530273
9.149999618530273
9.300000190734863
9.175000190734863
9.199999809265137
9.175000190734863
8.975000381469727
9.125
9.149999618530273
9.449999809265137
9.149999618530273
9.100000381469727
9.324999809265137
9.399999618530273
9.175000190734863
9.324999809265137
9.225000381469727
9.125
9.324999809265137
9.199999809265137
9.375
9.125
9.074999809265137
9.399999618530273
9.324999809265137
9.350000381469727
9.399999618530273
9.274999618530273
9.350000381469727
9.350000381469727
9.225000381469727
9.175000190734863
9.300000190734863
9.350000381469727
9.225000381469727
9.0
9.300000190734863
9.350000381469727
9.524999618530273
9.25
9.274999618530273
9.25
9.324999809265137
9.324999809265137
9.649999618530273
9.274999618530273
9.375
9.375
9.350000381469727
9.100000381469727
9.350000381469727
9.375
9.100000381469727
9.425000190734863
9.149999618530273
9.5
9.149999618530273
9.399999618530273
9.375
9.225000381469727
9.475000381469727
9.25
9.199999809265137
9.324999809265137
9.350000381469727
9.350000381469727
9.225000381469727
9.274999618530273
9.225000381469727
9.5
9.375
9.425000190734863
9.300000190734863
9.25
9.25
9.350000381469727
9.274999618530273
9.125
9.175000190734863
9.350000381469727
9.199999809265137
9.199999809265137
9.375
9.375
9.0
9.350000381469727
9.300000190734863
9.449999809265137
9.425000190734863
9.225000381469727
9.225000381469727
9.425000190734863
9.225000381469727
9.149999618530273
9.100000381469727
9.199999809265137
9.149999618530273
9.449999809265137
9.225000381469727
9.324999809265137
9.25
9.350000381469727
8.949999809265137
9.600000381469727
9.574999809265137
9.225000381469727
9.225000381469727
9.350000381469727
9.324999809265137
9.225000381469727
9.175000190734863
9.175000190734863
9.475000381469727
9.324999809265137
9.375
9.149999618530273
9.324999809265137
9.350000381469727
9.25
9.5
9.300000190734863
9.199999809265137
9.25
9.25
9.274999618530273
9.25
9.125
9.199999809265137
9.199999809265137
9.399999618530273
9.25
9.100000381469727
9.149999618530273
9.425000190734863
9.375
9.425000190734863
9.399999618530273
9.324999809265137
9.5
9.100000381469727
9.274999618530273
9.274999618530273
9.225000381469727
9.274999618530273
9.225000381469727
9.175000190734863
9.425000190734863
9.375
9.225000381469727
9.324999809265137
9.475000381469727
9.399999618530273
9.324999809265137
9.25
9.274999618530273
9.375
9.5
9.175000190734863
9.225000381469727
9.225000381469727
9.475000381469727
9.5
9.375
9.375
9.0
9.175000190734863
9.5
9.399999618530273
9.425000190734863
9.25
9.324999809265137
9.425000190734863
9.274999618530273
9.5
9.324999809265137
9.225000381469727
9.425000190734863
9.375
9.225000381469727
9.024999618530273
9.274999618530273
9.225000381469727
9.324999809265137
9.425000190734863
9.300000190734863
9.324999809265137
9.225000381469727
9.225000381469727
9.449999809265137
9.225000381469727
9.25
9.050000190734863
9.225000381469727
9.125
9.175000190734863
9.350000381469727
9.324999809265137
9.350000381469727
9.175000190734863
9.425000190734863
9.350000381469727
9.25
9.350000381469727
9.375
9.425000190734863
9.300000190734863
9.225000381469727
9.425000190734863
9.399999618530273
9.175000190734863
9.25
9.375
9.375
9.399999618530273
9.25
9.449999809265137
9.524999618530273
9.274999618530273
9.475000381469727
9.399999618530273
9.274999618530273
9.475000381469727
9.5
9.375
9.300000190734863
9.149999618530273
9.425000190734863
9.274999618530273
9.324999809265137
9.175000190734863
9.175000190734863
9.375
9.199999809265137
9.449999809265137
9.25
9.225000381469727
9.375
9.375
9.100000381469727
9.324999809265137
9.324999809265137
9.425000190734863
9.25
9.399999618530273
9.475000381469727
9.324999809265137
9.225000381469727
9.375
9.600000381469727
9.149999618530273
9.524999618530273
9.550000190734863
9.324999809265137
9.399999618530273
9.300000190734863
9.350000381469727
9.449999809265137
9.324999809265137
9.425000190734863
9.324999809265137
9.399999618530273
9.399999618530273
9.449999809265137
9.350000381469727
9.350000381469727
9.274999618530273
9.324999809265137
9.274999618530273
9.100000381469727
9.324999809265137
9.399999618530273
9.425000190734863
9.475000381469727
9.350000381469727
9.199999809265137
9.300000190734863
9.25
9.425000190734863
9.274999618530273
9.300000190734863
9.524999618530273
9.399999618530273
9.425000190734863
9.475000381469727
9.225000381469727
9.449999809265137
9.225000381469727
9.274999618530273
9.350000381469727
9.399999618530273
9.425000190734863
9.425000190734863
9.449999809265137
9.225000381469727
9.350000381469727
9.425000190734863
9.324999809265137
9.399999618530273
9.274999618530273
9.550000190734863
9.225000381469727
9.125
9.425000190734863
9.274999618530273
9.375
9.25
9.300000190734863
9.5
9.5
9.175000190734863
9.324999809265137
9.25
9.5
9.350000381469727
9.449999809265137
9.350000381469727
9.350000381469727
9.475000381469727
9.274999618530273
9.475000381469727
9.574999809265137
9.574999809265137
9.399999618530273
9.524999618530273
9.425000190734863
9.300000190734863
9.225000381469727
9.399999618530273
8.975000381469727
9.524999618530273
9.300000190734863
9.050000190734863
9.274999618530273
9.199999809265137
9.199999809265137
9.350000381469727
9.350000381469727
9.5
9.375
9.375
9.274999618530273
9.475000381469727
9.5
9.475000381469727
9.324999809265137
9.5
9.649999618530273
9.5
9.324999809265137
9.449999809265137
9.5
9.274999618530273
9.300000190734863
9.425000190734863
9.274999618530273
9.399999618530273
9.399999618530273
9.375
9.399999618530273
9.225000381469727
9.425000190734863
9.425000190734863
9.350000381469727
9.350000381469727
9.350000381469727
9.399999618530273
9.524999618530273
9.574999809265137
9.5
9.524999618530273
9.274999618530273
9.524999618530273
9.0
9.300000190734863
9.350000381469727
9.199999809265137
9.199999809265137
9.350000381469727
9.324999809265137
9.149999618530273
9.425000190734863
9.399999618530273
9.300000190734863
9.399999618530273
9.449999809265137
9.375
9.425000190734863
9.225000381469727
9.5
9.449999809265137
9.399999618530273
9.100000381469727
9.375
9.649999618530273
9.375
9.425000190734863
9.625
9.199999809265137
9.274999618530273
9.350000381469727
9.574999809265137
9.5
9.5
9.5
9.550000190734863
9.274999618530273
9.324999809265137
9.600000381469727
9.524999618530273
9.425000190734863
9.524999618530273
9.175000190734863
9.449999809265137
9.550000190734863
9.399999618530273
9.324999809265137
9.399999618530273
9.524999618530273
9.5
9.399999618530273
9.649999618530273
9.425000190734863
9.350000381469727
9.324999809265137
9.425000190734863
9.475000381469727
9.550000190734863
9.300000190734863
9.449999809265137
9.324999809265137
9.600000381469727
9.425000190734863
9.449999809265137
9.600000381469727
9.425000190734863
9.375
9.449999809265137
9.225000381469727
9.399999618530273
9.475000381469727
9.524999618530273
9.199999809265137
9.300000190734863
9.324999809265137
9.399999618530273
9.524999618530273
9.125
9.5
9.600000381469727
9.5
9.5
9.399999618530273
9.100000381469727
9.350000381469727
9.399999618530273
9.425000190734863
9.25
9.375
9.425000190734863
9.524999618530273
9.475000381469727
9.199999809265137
9.324999809265137
9.425000190734863
9.475000381469727
9.449999809265137
9.5
9.475000381469727
9.375
9.399999618530273
9.5
9.25
9.274999618530273
9.25
9.5
9.725000381469727
9.199999809265137
9.425000190734863
9.425000190734863
9.574999809265137
9.475000381469727
9.399999618530273
9.300000190734863
9.350000381469727
9.5
9.5
9.449999809265137
9.399999618530273
9.5
9.300000190734863
9.324999809265137
9.274999618530273
9.274999618530273
9.600000381469727
9.375
9.375
9.324999809265137
9.449999809265137
9.375
9.475000381469727
9.324999809265137
9.625
9.274999618530273
9.25
9.199999809265137
9.475000381469727
9.475000381469727
9.399999618530273
9.324999809265137
9.324999809265137
9.524999618530273
9.449999809265137
9.350000381469727
9.574999809265137
9.225000381469727
9.350000381469727
9.375
9.5
9.425000190734863
9.199999809265137
9.5
9.149999618530273
9.350000381469727
9.25
9.475000381469727
9.524999618530273
9.399999618530273
9.524999618530273
9.399999618530273
9.324999809265137
9.350000381469727
9.5
9.550000190734863
9.425000190734863
9.475000381469727
9.524999618530273
9.475000381469727
9.524999618530273
9.425000190734863
9.274999618530273
9.300000190734863
9.225000381469727
9.5
9.5
9.475000381469727
9.475000381469727
9.475000381469727
9.524999618530273
9.425000190734863
9.449999809265137
9.5
9.324999809265137
9.449999809265137
9.524999618530273
9.300000190734863
8.975000381469727
9.175000190734863
9.225000381469727
9.324999809265137
9.324999809265137
9.300000190734863
9.5
9.524999618530273
9.350000381469727
9.199999809265137
9.324999809265137
9.300000190734863
9.300000190734863
9.725000381469727
9.425000190734863
9.524999618530273
9.225000381469727
9.449999809265137
9.300000190734863
9.300000190734863
9.375
9.175000190734863
9.324999809265137
9.274999618530273
9.425000190734863
9.350000381469727
9.149999618530273
9.324999809265137
9.375
9.425000190734863
9.25
9.350000381469727
9.5
9.550000190734863
9.225000381469727
9.225000381469727
9.425000190734863
9.175000190734863
9.399999618530273
9.274999618530273
9.425000190734863
9.300000190734863
9.25
9.324999809265137
9.300000190734863
9.399999618530273
9.300000190734863
9.399999618530273
9.125
9.399999618530273
9.425000190734863
9.399999618530273
9.524999618530273
9.550000190734863
9.425000190734863
9.475000381469727
9.25
9.475000381469727
9.449999809265137
9.324999809265137
9.350000381469727
9.375
9.350000381469727
9.5
9.649999618530273
9.399999618530273
9.25
9.274999618530273
9.225000381469727
9.300000190734863
9.399999618530273
9.274999618530273
9.350000381469727
9.5
9.425000190734863
9.25
9.399999618530273
9.324999809265137
9.475000381469727
9.300000190734863
9.524999618530273
9.175000190734863
9.375
9.600000381469727
9.449999809265137
9.449999809265137
9.550000190734863
9.375
9.375
9.125
9.125
9.574999809265137
9.25
9.300000190734863
9.350000381469727
9.300000190734863
9.449999809265137
9.25
9.425000190734863
9.350000381469727
9.300000190734863
9.399999618530273
9.550000190734863
