EpRewMean
0.9275000095367432
0.9200000166893005
1.2549999952316284
1.0774999856948853
1.1074999570846558
1.274999976158142
1.3600000143051147
1.3274999856948853
1.3849999904632568
1.2799999713897705
1.2675000429153442
1.3574999570846558
1.3250000476837158
1.3799999952316284
1.4800000190734863
1.4075000286102295
1.537500023841858
1.3624999523162842
1.3174999952316284
1.4225000143051147
1.350000023841858
1.4850000143051147
1.375
1.6375000476837158
1.3875000476837158
1.462499976158142
1.627500057220459
1.527500033378601
1.6425000429153442
1.6799999475479126
1.6349999904632568
1.8424999713897705
1.6775000095367432
1.7024999856948853
1.7925000190734863
1.847499966621399
1.6124999523162842
1.8975000381469727
1.8875000476837158
1.8700000047683716
1.962499976158142
2.3299999237060547
2.2225000858306885
2.234999895095825
2.444999933242798
2.4049999713897705
2.259999990463257
2.549999952316284
2.690000057220459
3.059999942779541
2.625
2.7300000190734863
2.867500066757202
2.6675000190734863
2.672499895095825
2.690000057220459
2.869999885559082
2.757499933242798
2.927500009536743
2.9825000762939453
3.4124999046325684
3.4549999237060547
3.3350000381469727
3.427500009536743
3.5274999141693115
3.5225000381469727
3.2149999141693115
3.6075000762939453
3.6075000762939453
3.815000057220459
4.017499923706055
4.002500057220459
3.9774999618530273
3.987499952316284
4.340000152587891
4.085000038146973
4.422500133514404
4.440000057220459
4.574999809265137
4.78249979019165
4.929999828338623
4.980000019073486
4.722499847412109
4.71999979019165
5.232500076293945
4.59250020980835
4.949999809265137
5.197500228881836
5.204999923706055
5.195000171661377
5.517499923706055
5.402500152587891
5.552499771118164
5.857500076293945
5.427499771118164
5.989999771118164
5.704999923706055
5.949999809265137
6.472499847412109
6.417500019073486
6.597499847412109
6.46750020980835
6.114999771118164
6.025000095367432
6.602499961853027
6.369999885559082
7.204999923706055
7.162499904632568
6.822500228881836
7.147500038146973
7.547500133514404
7.422500133514404
7.139999866485596
7.400000095367432
6.917500019073486
7.3125
7.962500095367432
7.737500190734863
6.989999771118164
7.485000133514404
7.8125
7.855000019073486
7.934999942779541
8.02750015258789
7.914999961853027
8.292499542236328
7.882500171661377
8.354999542236328
8.975000381469727
8.607500076293945
7.987500190734863
8.279999732971191
7.5625
7.735000133514404
7.527500152587891
8.069999694824219
8.432499885559082
8.40250015258789
8.164999961853027
9.095000267028809
9.239999771118164
9.592499732971191
9.170000076293945
8.9399995803833
9.3725004196167
9.762499809265137
10.65999984741211
10.242500305175781
9.767499923706055
9.822500228881836
9.3725004196167
9.2475004196167
10.154999732971191
9.157500267028809
9.1850004196167
8.40999984741211
8.477499961853027
9.015000343322754
9.15999984741211
9.907500267028809
9.694999694824219
8.822500228881836
8.789999961853027
9.15250015258789
9.755000114440918
8.977499961853027
9.390000343322754
9.867500305175781
10.895000457763672
10.8125
10.642499923706055
11.53499984741211
12.029999732971191
11.647500038146973
11.555000305175781
11.78499984741211
11.454999923706055
11.274999618530273
11.960000038146973
11.274999618530273
10.585000038146973
10.427499771118164
11.537500381469727
10.482500076293945
10.927499771118164
11.454999923706055
10.880000114440918
10.642499923706055
10.452500343322754
10.494999885559082
9.975000381469727
11.217499732971191
11.625
11.427499771118164
11.529999732971191
11.632499694824219
11.944999694824219
11.515000343322754
11.125
11.069999694824219
12.522500038146973
12.2524995803833
11.675000190734863
11.619999885559082
12.015000343322754
12.47249984741211
13.072500228881836
11.732500076293945
12.147500038146973
11.567500114440918
10.52750015258789
11.524999618530273
11.694999694824219
11.364999771118164
11.842499732971191
11.375
12.092499732971191
12.557499885559082
12.522500038146973
12.792499542236328
11.6225004196167
11.239999771118164
11.6875
13.145000457763672
12.390000343322754
12.117500305175781
12.789999961853027
14.175000190734863
12.835000038146973
13.4375
13.595000267028809
13.092499732971191
13.307499885559082
13.1274995803833
12.619999885559082
12.817500114440918
12.657500267028809
11.75
12.864999771118164
14.045000076293945
13.010000228881836
13.412500381469727
13.732500076293945
13.017499923706055
12.755000114440918
13.382499694824219
13.037500381469727
13.265000343322754
13.005000114440918
13.555000305175781
13.272500038146973
12.420000076293945
13.172499656677246
13.0024995803833
13.607500076293945
13.607500076293945
12.859999656677246
12.5
14.052499771118164
14.5024995803833
14.569999694824219
14.237500190734863
13.335000038146973
13.449999809265137
14.297499656677246
14.25
14.28499984741211
15.229999542236328
13.984999656677246
13.074999809265137
13.642499923706055
14.297499656677246
13.802499771118164
14.047499656677246
15.077500343322754
14.710000038146973
14.664999961853027
14.930000305175781
14.02750015258789
14.03499984741211
14.149999618530273
14.352499961853027
13.140000343322754
13.505000114440918
13.787500381469727
13.782500267028809
12.982500076293945
13.357500076293945
13.6274995803833
13.412500381469727
13.020000457763672
13.625
13.882499694824219
13.927499771118164
13.647500038146973
13.572500228881836
13.6225004196167
13.382499694824219
13.90250015258789
13.727499961853027
13.324999809265137
14.170000076293945
15.142499923706055
14.612500190734863
14.297499656677246
15.6875
16.497499465942383
16.0575008392334
16.15999984741211
15.359999656677246
15.057499885559082
14.5625
14.8100004196167
14.725000381469727
15.762499809265137
15.885000228881836
15.647500038146973
16.122499465942383
16.19499969482422
16.2549991607666
16.13249969482422
16.575000762939453
17.6924991607666
17.75749969482422
17.232500076293945
17.15250015258789
16.96500015258789
17.552499771118164
16.162500381469727
15.90250015258789
17.149999618530273
18.184999465942383
17.549999237060547
16.53499984741211
16.24250030517578
16.854999542236328
16.764999389648438
16.8125
17.8174991607666
17.532499313354492
16.264999389648438
15.765000343322754
15.807499885559082
16.642499923706055
16.809999465942383
17.309999465942383
18.642499923706055
18.059999465942383
17.24250030517578
16.6299991607666
15.739999771118164
15.732500076293945
16.3799991607666
17.412500381469727
17.90250015258789
17.25749969482422
16.344999313354492
16.982500076293945
18.329999923706055
18.322500228881836
18.030000686645508
17.709999084472656
17.684999465942383
17.772499084472656
17.764999389648438
18.674999237060547
18.537500381469727
18.762500762939453
18.4325008392334
17.36750030517578
17.579999923706055
18.565000534057617
18.387500762939453
17.122499465942383
16.68000030517578
17.8075008392334
18.387500762939453
18.217500686645508
18.03499984741211
17.71500015258789
17.447500228881836
18.059999465942383
18.03499984741211
18.427499771118164
18.927499771118164
18.487499237060547
18.110000610351562
17.649999618530273
17.40999984741211
18.237499237060547
18.8125
18.959999084472656
17.860000610351562
17.959999084472656
17.822500228881836
16.604999542236328
16.424999237060547
16.957500457763672
17.34000015258789
17.100000381469727
17.584999084472656
19.107500076293945
19.764999389648438
19.237499237060547
18.274999618530273
17.559999465942383
17.704999923706055
18.4950008392334
18.707500457763672
18.885000228881836
18.4424991607666
17.587499618530273
18.727500915527344
18.469999313354492
17.232500076293945
17.729999542236328
18.0049991607666
18.59000015258789
18.8700008392334
18.762500762939453
18.1200008392334
17.93000030517578
17.762500762939453
17.4950008392334
18.012500762939453
18.077499389648438
18.684999465942383
18.337499618530273
19.024999618530273
18.532499313354492
16.707500457763672
17.907499313354492
18.55500030517578
18.260000228881836
18.34000015258789
17.739999771118164
18.584999084472656
19.114999771118164
19.28499984741211
19.239999771118164
18.142499923706055
16.9375
18.299999237060547
19.364999771118164
18.147499084472656
17.50749969482422
17.514999389648438
17.790000915527344
18.532499313354492
18.204999923706055
18.084999084472656
17.219999313354492
17.15250015258789
17.264999389648438
17.020000457763672
17.280000686645508
17.780000686645508
18.184999465942383
18.05500030517578
17.78499984741211
16.8075008392334
17.780000686645508
19.1299991607666
18.24250030517578
18.422500610351562
18.852500915527344
18.385000228881836
17.979999542236328
18.122499465942383
18.532499313354492
19.27750015258789
18.850000381469727
17.979999542236328
17.46500015258789
18.204999923706055
17.920000076293945
18.149999618530273
18.102500915527344
18.94499969482422
19.729999542236328
19.719999313354492
18.844999313354492
18.252500534057617
18.3799991607666
18.037500381469727
19.227500915527344
18.1299991607666
17.989999771118164
18.790000915527344
18.252500534057617
18.392499923706055
18.247499465942383
17.540000915527344
17.487499237060547
18.032499313354492
18.219999313354492
17.645000457763672
17.797500610351562
17.767499923706055
18.107500076293945
18.602500915527344
18.920000076293945
18.2450008392334
16.729999542236328
17.3125
18.457500457763672
17.44499969482422
17.565000534057617
18.864999771118164
19.149999618530273
18.584999084472656
17.787500381469727
18.30500030517578
18.329999923706055
17.6875
17.767499923706055
17.145000457763672
17.202499389648438
18.155000686645508
18.834999084472656
19.594999313354492
19.22249984741211
19.272499084472656
18.162500381469727
18.212499618530273
19.107500076293945
19.415000915527344
19.385000228881836
20.137500762939453
19.4325008392334
18.212499618530273
18.1200008392334
18.975000381469727
18.912500381469727
18.540000915527344
18.202499389648438
19.485000610351562
19.49250030517578
19.40999984741211
18.36750030517578
16.72249984741211
16.782499313354492
17.0674991607666
16.9375
17.63249969482422
19.844999313354492
19.797500610351562
18.78499984741211
18.719999313354492
18.86750030517578
18.872499465942383
19.032499313354492
19.082500457763672
18.415000915527344
19.0575008392334
19.31999969482422
19.165000915527344
18.71500015258789
17.127500534057617
17.1924991607666
18.482500076293945
18.2549991607666
17.90999984741211
17.287500381469727
16.424999237060547
16.200000762939453
16.139999389648438
17.092500686645508
17.049999237060547
17.950000762939453
18.302499771118164
17.502500534057617
18.252500534057617
18.342500686645508
17.155000686645508
17.024999618530273
17.477500915527344
17.610000610351562
18.31999969482422
18.332500457763672
17.59000015258789
17.63249969482422
18.037500381469727
18.239999771118164
18.604999542236328
18.337499618530273
17.662500381469727
16.5674991607666
16.697500228881836
16.575000762939453
16.952499389648438
17.19499969482422
17.572500228881836
18.092500686645508
18.299999237060547
18.127500534057617
17.622499465942383
18.802499771118164
18.00749969482422
18.854999542236328
20.399999618530273
19.6875
18.885000228881836
17.912500381469727
16.19499969482422
17.30500030517578
18.674999237060547
17.93000030517578
18.295000076293945
20.407499313354492
20.78499984741211
20.00749969482422
19.80500030517578
19.047500610351562
18.987499237060547
19.627500534057617
20.014999389648438
20.19499969482422
19.127500534057617
19.112499237060547
19.34000015258789
18.815000534057617
18.360000610351562
19.44499969482422
19.774999618530273
18.81999969482422
18.052499771118164
18.040000915527344
16.895000457763672
16.969999313354492
17.702499389648438
17.15999984741211
15.582500457763672
15.984999656677246
17.30500030517578
17.46500015258789
17.799999237060547
17.397499084472656
17.537500381469727
18.22249984741211
19.162500381469727
18.905000686645508
18.0625
18.282499313354492
18.11750030517578
18.739999771118164
18.510000228881836
19.74250030517578
20.012500762939453
19.372499465942383
18.549999237060547
19.462499618530273
19.552499771118164
19.540000915527344
19.235000610351562
19.65250015258789
19.46500015258789
18.940000534057617
19.11750030517578
17.94499969482422
18.0674991607666
18.822500228881836
18.385000228881836
19.360000610351562
19.264999389648438
18.592500686645508
18.850000381469727
18.4375
18.462499618530273
19.200000762939453
18.47249984741211
19.364999771118164
19.360000610351562
19.834999084472656
19.957500457763672
20.362499237060547
19.309999465942383
18.940000534057617
19.8700008392334
21.61750030517578
20.77750015258789
22.174999237060547
21.862499237060547
21.25749969482422
21.045000076293945
21.5
22.920000076293945
21.6875
21.31999969482422
20.635000228881836
20.479999542236328
20.587499618530273
21.212499618530273
21.665000915527344
21.237499237060547
18.959999084472656
19.19499969482422
20.47249984741211
21.237499237060547
20.889999389648438
21.010000228881836
21.34749984741211
21.7450008392334
20.5575008392334
18.417499542236328
18.524999618530273
19.674999237060547
20.3125
19.727500915527344
19.190000534057617
19.899999618530273
20.417499542236328
21.209999084472656
20.737499237060547
19.862499237060547
18.290000915527344
19.190000534057617
19.190000534057617
18.552499771118164
18.327499389648438
18.915000915527344
18.787500381469727
19.177499771118164
20.46500015258789
20.315000534057617
19.74250030517578
20.022499084472656
19.975000381469727
20.397499084472656
19.897499084472656
20.05500030517578
20.31999969482422
20.799999237060547
20.450000762939453
19.872499465942383
19.71500015258789
19.875
20.122499465942383
20.677499771118164
20.392499923706055
19.899999618530273
18.68000030517578
19.19499969482422
20.2549991607666
19.959999084472656
20.032499313354492
19.037500381469727
19.11750030517578
20.104999542236328
19.677499771118164
20.15250015258789
20.625
20.482500076293945
21.012500762939453
19.834999084472656
18.985000610351562
19.760000228881836
21.309999465942383
21.122499465942383
20.552499771118164
20.282499313354492
19.889999389648438
20.05500030517578
19.707500457763672
20.174999237060547
19.420000076293945
18.25749969482422
18.030000686645508
18.947500228881836
19.9375
19.520000457763672
19.412500381469727
19.704999923706055
19.732500076293945
18.737499237060547
19.092500686645508
19.127500534057617
19.38249969482422
19.354999542236328
18.295000076293945
18.717500686645508
18.707500457763672
18.647499084472656
18.977500915527344
19.200000762939453
17.77750015258789
17.600000381469727
19.110000610351562
19.512500762939453
19.522499084472656
19.559999465942383
18.424999237060547
18.462499618530273
18.264999389648438
18.684999465942383
18.834999084472656
18.272499084472656
19.299999237060547
17.917499542236328
17.592500686645508
18.63249969482422
17.532499313354492
17.065000534057617
17.4325008392334
18.362499237060547
17.145000457763672
16.920000076293945
17.299999237060547
16.84000015258789
17.3799991607666
17.264999389648438
17.3700008392334
17.637500762939453
17.952499389648438
17.350000381469727
17.030000686645508
18.232500076293945
19.239999771118164
19.217500686645508
19.114999771118164
18.674999237060547
18.447500228881836
18.887500762939453
18.377500534057617
17.625
18.540000915527344
17.907499313354492
17.46500015258789
17.8799991607666
17.059999465942383
18.790000915527344
19.977500915527344
19.774999618530273
19.239999771118164
19.3075008392334
18.764999389648438
19.809999465942383
20.899999618530273
22.360000610351562
20.332500457763672
19.452499389648438
19.209999084472656
17.977500915527344
19.502500534057617
20.252500534057617
19.940000534057617
19.987499237060547
20.030000686645508
19.967500686645508
20.142499923706055
20.397499084472656
20.96500015258789
20.537500381469727
20.8075008392334
18.8125
18.3799991607666
20.247499465942383
19.72249984741211
20.34749984741211
20.184999465942383
20.642499923706055
21.3125
21.012500762939453
20.03499984741211
21.360000610351562
21.497499465942383
20.924999237060547
19.767499923706055
21.094999313354492
22.03499984741211
20.287500381469727
19.735000610351562
20.760000228881836
20.297500610351562
20.385000228881836
20.065000534057617
19.614999771118164
19.4325008392334
18.71500015258789
19.147499084472656
19.875
19.84749984741211
20.677499771118164
20.487499237060547
19.875
19.46500015258789
19.247499465942383
19.987499237060547
19.8075008392334
19.47249984741211
19.770000457763672
20.47249984741211
20.642499923706055
19.65999984741211
19.114999771118164
20.112499237060547
20.267499923706055
19.065000534057617
19.280000686645508
19.827499389648438
19.604999542236328
19.322500228881836
19.15250015258789
19.952499389648438
20.02750015258789
18.862499237060547
18.50749969482422
18.447500228881836
17.780000686645508
17.987499237060547
18.422500610351562
18.5575008392334
18.952499389648438
19.485000610351562
19.697500228881836
18.6924991607666
17.864999771118164
18.282499313354492
19.107500076293945
20.34749984741211
19.74250030517578
18.90999984741211
18.842500686645508
18.415000915527344
18.547500610351562
18.094999313354492
17.075000762939453
17.38249969482422
17.707500457763672
17.889999389648438
18.962499618530273
18.952499389648438
19.899999618530273
19.899999618530273
19.392499923706055
20.002500534057617
20.479999542236328
20.25
19.344999313354492
19.852500915527344
20.559999465942383
20.094999313354492
20.40999984741211
19.395000457763672
18.8799991607666
19.172500610351562
19.447500228881836
19.420000076293945
18.780000686645508
19.104999542236328
19.36750030517578
19.5049991607666
19.299999237060547
19.024999618530273
19.084999084472656
18.782499313354492
17.957500457763672
18.405000686645508
19.770000457763672
18.90999984741211
18.34749984741211
18.219999313354492
17.84000015258789
18.0049991607666
19.579999923706055
20.592500686645508
19.56999969482422
18.21500015258789
17.80500030517578
17.96500015258789
19.459999084472656
19.274999618530273
18.434999465942383
18.072500228881836
17.987499237060547
18.877500534057617
19.31999969482422
19.440000534057617
18.829999923706055
18.6875
19.010000228881836
18.63249969482422
18.780000686645508
18.752500534057617
17.56999969482422
18.0
19.334999084472656
19.427499771118164
19.625
18.032499313354492
18.272499084472656
19.040000915527344
18.987499237060547
17.977500915527344
17.459999084472656
19.100000381469727
19.0674991607666
18.577499389648438
17.74250030517578
16.702499389648438
17.450000762939453
18.542499542236328
17.727500915527344
17.354999542236328
16.895000457763672
17.399999618530273
19.094999313354492
19.572500228881836
18.657499313354492
17.672500610351562
17.25
17.704999923706055
17.084999084472656
17.852500915527344
17.44499969482422
17.052499771118164
17.979999542236328
18.587499618530273
18.737499237060547
18.104999542236328
18.46500015258789
18.732500076293945
18.2549991607666
18.897499084472656
19.094999313354492
19.15999984741211
18.899999618530273
18.559999465942383
18.385000228881836
18.854999542236328
18.709999084472656
18.565000534057617
19.552499771118164
20.092500686645508
19.385000228881836
18.982500076293945
18.832500457763672
18.297500610351562
18.077499389648438
18.485000610351562
16.829999923706055
16.184999465942383
16.264999389648438
17.02750015258789
17.71500015258789
16.647499084472656
17.5625
17.292499542236328
17.65999984741211
17.24250030517578
16.69499969482422
16.707500457763672
16.270000457763672
16.457500457763672
17.299999237060547
17.417499542236328
17.427499771118164
17.860000610351562
17.59749984741211
18.212499618530273
16.967500686645508
16.684999465942383
17.559999465942383
16.469999313354492
17.0049991607666
17.440000534057617
18.895000457763672
19.137500762939453
17.19499969482422
16.850000381469727
17.107500076293945
17.772499084472656
17.850000381469727
17.5575008392334
17.2549991607666
17.520000457763672
17.55500030517578
17.65250015258789
18.462499618530273
18.520000457763672
18.852500915527344
18.542499542236328
17.232500076293945
16.922500610351562
16.342500686645508
16.017499923706055
15.694999694824219
16.450000762939453
17.799999237060547
17.514999389648438
18.037500381469727
18.0625
17.545000076293945
18.225000381469727
19.137500762939453
18.9325008392334
18.227500915527344
18.082500457763672
17.950000762939453
18.712499618530273
19.344999313354492
18.917499542236328
18.59749984741211
18.540000915527344
18.28499984741211
18.772499084472656
17.75749969482422
17.987499237060547
18.787500381469727
17.252500534057617
17.575000762939453
18.297500610351562
17.897499084472656
18.600000381469727
19.3125
18.885000228881836
18.915000915527344
20.440000534057617
20.9325008392334
21.06999969482422
20.227500915527344
19.36750030517578
19.1924991607666
19.610000610351562
19.415000915527344
19.59749984741211
19.104999542236328
19.872499465942383
20.309999465942383
20.452499389648438
19.5674991607666
20.184999465942383
20.487499237060547
19.167499542236328
18.735000610351562
19.975000381469727
20.655000686645508
19.792499542236328
19.344999313354492
19.739999771118164
19.4424991607666
19.219999313354492
19.889999389648438
20.084999084472656
19.892499923706055
19.7549991607666
18.920000076293945
18.71500015258789
18.332500457763672
18.524999618530273
19.217500686645508
18.59749984741211
17.719999313354492
16.77750015258789
16.584999084472656
17.559999465942383
17.09000015258789
17.3075008392334
18.155000686645508
17.729999542236328
18.1200008392334
18.082500457763672
18.170000076293945
18.850000381469727
19.440000534057617
19.6825008392334
19.049999237060547
19.059999465942383
18.934999465942383
18.1299991607666
17.69499969482422
17.454999923706055
17.9375
18.5575008392334
19.042499542236328
19.27750015258789
18.75
19.075000762939453
20.225000381469727
19.657499313354492
19.69499969482422
19.49250030517578
18.00749969482422
18.137500762939453
18.362499237060547
17.90250015258789
17.700000762939453
18.772499084472656
19.09000015258789
19.84749984741211
19.332500457763672
18.405000686645508
18.292499542236328
18.667499542236328
19.075000762939453
18.047500610351562
18.405000686645508
18.174999237060547
17.912500381469727
19.5049991607666
20.207500457763672
18.99250030517578
19.00749969482422
19.165000915527344
20.572500228881836
20.00749969482422
18.337499618530273
18.2450008392334
18.337499618530273
19.450000762939453
19.415000915527344
18.440000534057617
18.462499618530273
18.704999923706055
19.219999313354492
20.5575008392334
21.989999771118164
20.8075008392334
20.0575008392334
20.125
21.27750015258789
21.1875
20.530000686645508
20.065000534057617
19.614999771118164
20.002500534057617
21.072500228881836
20.732500076293945
19.209999084472656
18.764999389648438
19.147499084472656
21.02750015258789
21.592500686645508
21.739999771118164
21.014999389648438
20.122499465942383
20.36750030517578
20.372499465942383
20.907499313354492
21.332500457763672
20.857500076293945
20.614999771118164
21.542499542236328
21.9325008392334
21.260000228881836
22.030000686645508
22.774999618530273
22.309999465942383
23.27750015258789
22.3799991607666
22.344999313354492
21.459999084472656
21.020000457763672
21.19499969482422
20.53499984741211
20.732500076293945
21.825000762939453
21.540000915527344
20.809999465942383
20.059999465942383
20.489999771118164
20.149999618530273
20.217500686645508
20.399999618530273
20.645000457763672
20.3174991607666
20.68000030517578
19.915000915527344
19.342500686645508
18.8174991607666
19.139999389648438
19.427499771118164
18.725000381469727
19.559999465942383
19.924999237060547
19.0575008392334
19.270000457763672
18.639999389648438
18.13249969482422
18.832500457763672
18.237499237060547
18.149999618530273
18.94499969482422
19.385000228881836
19.415000915527344
19.809999465942383
18.860000610351562
18.565000534057617
19.639999389648438
19.780000686645508
20.662500381469727
20.0
18.84749984741211
18.28499984741211
19.012500762939453
18.329999923706055
17.90999984741211
18.290000915527344
18.274999618530273
17.582500457763672
16.825000762939453
17.40999984741211
17.912500381469727
17.614999771118164
16.412500381469727
15.21500015258789
15.822500228881836
16.915000915527344
16.94499969482422
15.757499694824219
16.47249984741211
18.107500076293945
17.77750015258789
16.475000381469727
16.354999542236328
16.739999771118164
16.857500076293945
18.020000457763672
18.227500915527344
16.844999313354492
16.997499465942383
17.212499618530273
17.422500610351562
18.602500915527344
18.627500534057617
17.987499237060547
18.375
19.149999618530273
19.00749969482422
18.792499542236328
18.174999237060547
17.69499969482422
18.69499969482422
19.665000915527344
19.584999084472656
18.602500915527344
18.530000686645508
20.012500762939453
21.28499984741211
21.709999084472656
20.77750015258789
21.30500030517578
21.489999771118164
21.092500686645508
21.022499084472656
20.90250015258789
20.59749984741211
20.565000534057617
21.795000076293945
22.405000686645508
21.582500457763672
20.454999923706055
20.954999923706055
21.274999618530273
21.912500381469727
22.582500457763672
22.15250015258789
22.342500686645508
21.290000915527344
21.459999084472656
21.440000534057617
20.752500534057617
20.43000030517578
20.1875
20.702499389648438
20.487499237060547
19.947500228881836
20.49250030517578
21.15999984741211
21.417499542236328
20.802499771118164
21.672500610351562
21.65999984741211
20.40999984741211
19.3799991607666
19.36750030517578
20.157499313354492
19.940000534057617
20.280000686645508
20.514999389648438
21.6875
20.50749969482422
21.010000228881836
19.915000915527344
20.1875
21.512500762939453
21.229999542236328
19.950000762939453
20.227500915527344
21.357500076293945
20.834999084472656
21.462499618530273
20.899999618530273
21.3125
22.25749969482422
22.655000686645508
21.954999923706055
22.3174991607666
22.417499542236328
21.612499237060547
22.147499084472656
23.4424991607666
22.162500381469727
21.3174991607666
21.770000457763672
22.97249984741211
21.837499618530273
21.594999313354492
22.045000076293945
21.727500915527344
22.267499923706055
23.137500762939453
23.399999618530273
22.575000762939453
21.375
20.737499237060547
20.59000015258789
21.387500762939453
21.65999984741211
22.8075008392334
22.877500534057617
22.907499313354492
22.079999923706055
20.795000076293945
21.415000915527344
21.037500381469727
21.602500915527344
21.912500381469727
22.502500534057617
21.5674991607666
20.93000030517578
21.4424991607666
22.127500534057617
22.420000076293945
21.385000228881836
21.40250015258789
21.1875
20.952499389648438
21.040000915527344
20.739999771118164
20.202499389648438
21.747499465942383
22.49250030517578
21.842500686645508
22.06999969482422
21.647499084472656
21.842500686645508
22.372499465942383
20.895000457763672
20.600000381469727
21.354999542236328
21.407499313354492
22.635000228881836
21.782499313354492
22.354999542236328
22.22249984741211
22.287500381469727
22.267499923706055
22.667499542236328
23.329999923706055
23.69499969482422
23.325000762939453
23.344999313354492
23.042499542236328
22.392499923706055
22.542499542236328
22.082500457763672
21.6299991607666
22.260000228881836
21.59749984741211
21.895000457763672
21.8174991607666
21.5575008392334
22.497499465942383
21.752500534057617
21.565000534057617
21.50749969482422
21.459999084472656
21.344999313354492
20.969999313354492
20.752500534057617
20.8799991607666
21.577499389648438
22.860000610351562
23.782499313354492
22.90250015258789
23.102500915527344
23.354999542236328
23.0049991607666
22.4375
22.344999313354492
22.399999618530273
23.475000381469727
24.3174991607666
24.477500915527344
23.75749969482422
23.094999313354492
22.790000915527344
22.86750030517578
21.897499084472656
22.524999618530273
23.957500457763672
23.977500915527344
23.5625
24.3799991607666
24.547500610351562
24.737499237060547
24.497499465942383
24.614999771118164
24.397499084472656
23.957500457763672
22.8700008392334
22.74250030517578
22.875
23.477500915527344
23.25749969482422
22.102500915527344
21.850000381469727
20.227500915527344
20.40250015258789
20.475000381469727
21.077499389648438
21.264999389648438
22.412500381469727
22.450000762939453
22.482500076293945
