EpRewMean
0.032499998807907104
0.0024999999441206455
0.019999999552965164
0.02500000037252903
0.029999999329447746
0.08500000089406967
0.10249999910593033
0.10249999910593033
0.07249999791383743
0.14749999344348907
0.0925000011920929
0.10750000178813934
0.2800000011920929
0.19499999284744263
0.24250000715255737
0.19499999284744263
0.29499998688697815
0.23499999940395355
0.2824999988079071
0.2175000011920929
0.30000001192092896
0.1875
0.2574999928474426
0.1899999976158142
0.5575000047683716
0.4325000047683716
0.20000000298023224
0.33250001072883606
0.38999998569488525
0.5049999952316284
0.47749999165534973
0.27000001072883606
0.5174999833106995
0.4625000059604645
0.44749999046325684
0.5049999952316284
0.45249998569488525
0.41749998927116394
0.29499998688697815
0.5249999761581421
0.4699999988079071
0.23499999940395355
0.4449999928474426
0.574999988079071
0.5600000023841858
0.5525000095367432
0.5074999928474426
0.3799999952316284
0.6399999856948853
0.47749999165534973
0.5299999713897705
0.42500001192092896
0.8949999809265137
0.8149999976158142
0.6949999928474426
0.8575000166893005
0.8550000190734863
0.6150000095367432
0.49000000953674316
0.5350000262260437
0.6274999976158142
0.7900000214576721
1.0199999809265137
1.0700000524520874
1.0750000476837158
1.4524999856948853
1.847499966621399
1.375
2.117500066757202
2.0374999046325684
2.615000009536743
2.557499885559082
2.947499990463257
2.990000009536743
3.877500057220459
4.255000114440918
4.045000076293945
3.692500114440918
3.7799999713897705
5.019999980926514
4.702499866485596
4.172500133514404
5.065000057220459
4.949999809265137
4.829999923706055
5.054999828338623
5.09250020980835
5.242499828338623
5.942500114440918
6.037499904632568
6.28249979019165
6.65749979019165
6.650000095367432
7.315000057220459
7.269999980926514
6.997499942779541
7.125
6.954999923706055
7.269999980926514
7.377500057220459
7.559999942779541
8.010000228881836
8.0
7.777500152587891
7.940000057220459
7.985000133514404
7.559999942779541
7.707499980926514
7.792500019073486
7.960000038146973
8.092499732971191
8.255000114440918
8.592499732971191
8.6274995803833
8.770000457763672
8.505000114440918
8.592499732971191
8.829999923706055
8.5
8.1850004196167
8.585000038146973
8.755000114440918
8.779999732971191
8.850000381469727
8.742500305175781
8.582500457763672
8.630000114440918
8.3149995803833
8.487500190734863
8.102499961853027
8.017499923706055
8.395000457763672
8.579999923706055
8.789999961853027
8.582500457763672
8.567500114440918
8.72249984741211
8.795000076293945
8.617500305175781
8.662500381469727
8.842499732971191
8.71500015258789
9.052499771118164
9.380000114440918
9.732500076293945
9.5649995803833
9.637499809265137
9.78499984741211
9.425000190734863
9.0
9.0
8.912500381469727
9.09000015258789
9.029999732971191
9.015000343322754
8.600000381469727
8.287500381469727
8.302499771118164
9.015000343322754
9.412500381469727
9.0649995803833
9.082500457763672
9.107500076293945
9.25
9.302499771118164
9.255000114440918
9.47249984741211
9.397500038146973
9.322500228881836
9.244999885559082
9.022500038146973
9.359999656677246
9.552499771118164
9.055000305175781
8.982500076293945
9.194999694824219
8.917499542236328
8.520000457763672
8.617500305175781
8.835000038146973
9.244999885559082
9.297499656677246
9.09749984741211
9.322500228881836
9.255000114440918
9.364999771118164
9.699999809265137
9.404999732971191
9.317500114440918
9.302499771118164
9.6875
10.1850004196167
9.862500190734863
9.767499923706055
9.5024995803833
9.442500114440918
9.345000267028809
9.522500038146973
9.835000038146973
10.119999885559082
10.307499885559082
9.842499732971191
9.755000114440918
9.5024995803833
9.734999656677246
10.162500381469727
10.515000343322754
10.412500381469727
10.352499961853027
9.864999771118164
9.887499809265137
9.779999732971191
10.012499809265137
10.015000343322754
9.917499542236328
9.817500114440918
9.882499694824219
10.015000343322754
10.109999656677246
10.117500305175781
10.037500381469727
9.795000076293945
9.77750015258789
9.654999732971191
9.850000381469727
9.952500343322754
10.167499542236328
9.962499618530273
10.029999732971191
9.967499732971191
10.095000267028809
10.015000343322754
10.307499885559082
10.462499618530273
10.6850004196167
10.920000076293945
10.6899995803833
10.619999885559082
10.520000457763672
10.587499618530273
10.47249984741211
10.395000457763672
10.302499771118164
10.354999542236328
10.352499961853027
10.84000015258789
10.805000305175781
10.109999656677246
10.047499656677246
10.095000267028809
10.147500038146973
10.46500015258789
10.145000457763672
10.522500038146973
10.712499618530273
10.744999885559082
10.442500114440918
10.109999656677246
9.9399995803833
9.882499694824219
10.3125
10.595000267028809
10.630000114440918
10.6850004196167
10.632499694824219
10.552499771118164
10.4975004196167
10.555000305175781
10.392499923706055
10.489999771118164
10.755000114440918
10.772500038146973
10.739999771118164
10.922499656677246
10.954999923706055
10.930000305175781
10.729999542236328
10.555000305175781
10.579999923706055
10.614999771118164
10.864999771118164
10.772500038146973
10.77750015258789
10.734999656677246
10.875
10.857500076293945
10.742500305175781
10.779999732971191
10.6899995803833
10.609999656677246
10.742500305175781
10.789999961853027
10.612500190734863
10.582500457763672
10.987500190734863
10.84749984741211
10.53499984741211
10.5649995803833
10.645000457763672
10.417499542236328
10.382499694824219
10.399999618530273
10.515000343322754
10.397500038146973
10.1899995803833
10.1225004196167
10.329999923706055
10.4375
10.734999656677246
10.892499923706055
10.704999923706055
10.595000267028809
10.932499885559082
11.329999923706055
11.262499809265137
10.917499542236328
10.654999732971191
10.734999656677246
10.9399995803833
11.077500343322754
10.789999961853027
10.802499771118164
11.077500343322754
11.057499885559082
10.9350004196167
10.869999885559082
11.015000343322754
11.050000190734863
11.037500381469727
10.585000038146973
10.779999732971191
11.0600004196167
11.53499984741211
11.220000267028809
10.800000190734863
10.300000190734863
10.489999771118164
10.617500305175781
11.032500267028809
11.1225004196167
11.182499885559082
10.920000076293945
10.852499961853027
10.587499618530273
10.625
10.667499542236328
10.914999961853027
10.805000305175781
10.84749984741211
10.867500305175781
10.989999771118164
11.149999618530273
11.199999809265137
11.15999984741211
11.100000381469727
10.857500076293945
10.425000190734863
10.27750015258789
10.272500038146973
10.952500343322754
11.112500190734863
10.957500457763672
10.927499771118164
11.175000190734863
11.692500114440918
11.217499732971191
11.237500190734863
10.949999809265137
11.1850004196167
10.795000076293945
10.792499542236328
11.087499618530273
11.237500190734863
11.542499542236328
11.53499984741211
11.404999732971191
10.90250015258789
10.979999542236328
10.84000015258789
10.922499656677246
11.157500267028809
11.010000228881836
11.079999923706055
10.869999885559082
10.712499618530273
10.71500015258789
11.170000076293945
11.265000343322754
11.114999771118164
10.8725004196167
11.154999732971191
10.987500190734863
10.907500267028809
10.925000190734863
10.829999923706055
11.017499923706055
11.0625
11.270000457763672
10.90250015258789
11.164999961853027
11.170000076293945
11.210000038146973
11.069999694824219
10.882499694824219
11.324999809265137
11.202500343322754
11.367500305175781
11.270000457763672
11.007499694824219
11.147500038146973
10.975000381469727
11.279999732971191
11.037500381469727
11.085000038146973
10.920000076293945
11.069999694824219
11.432499885559082
11.227499961853027
11.0625
10.630000114440918
11.109999656677246
11.417499542236328
11.345000267028809
11.317500114440918
11.007499694824219
11.362500190734863
11.352499961853027
11.27750015258789
11.0625
10.984999656677246
11.045000076293945
10.994999885559082
11.029999732971191
11.3725004196167
11.412500381469727
11.34749984741211
10.970000267028809
10.975000381469727
10.967499732971191
11.257499694824219
11.5600004196167
11.449999809265137
11.104999542236328
10.819999694824219
10.782500267028809
10.952500343322754
11.072500228881836
11.367500305175781
11.0
11.0625
10.667499542236328
11.005000114440918
10.922499656677246
10.987500190734863
11.032500267028809
11.114999771118164
11.212499618530273
11.40250015258789
11.470000267028809
11.225000381469727
11.079999923706055
11.467499732971191
11.452500343322754
11.207500457763672
11.0625
11.217499732971191
11.15250015258789
11.162500381469727
10.75
10.694999694824219
11.142499923706055
11.470000267028809
11.220000267028809
10.952500343322754
11.132499694824219
11.3774995803833
11.2524995803833
11.024999618530273
11.172499656677246
11.182499885559082
11.157500267028809
10.767499923706055
10.989999771118164
10.802499771118164
10.975000381469727
11.237500190734863
11.507499694824219
11.3774995803833
11.125
10.989999771118164
10.887499809265137
11.095000267028809
11.300000190734863
11.2524995803833
11.15250015258789
11.335000038146973
11.067500114440918
11.157500267028809
10.977499961853027
11.130000114440918
11.194999694824219
11.194999694824219
11.357500076293945
10.755000114440918
9.657500267028809
9.430000305175781
8.989999771118164
9.039999961853027
9.020000457763672
9.180000305175781
9.40999984741211
9.824999809265137
9.970000267028809
9.90250015258789
9.862500190734863
10.462499618530273
10.5625
10.517499923706055
10.324999809265137
10.77750015258789
10.757499694824219
10.550000190734863
10.8125
11.020000457763672
11.335000038146973
11.677499771118164
11.555000305175781
11.297499656677246
11.167499542236328
11.0
11.142499923706055
11.239999771118164
11.322500228881836
11.467499732971191
11.522500038146973
11.520000457763672
11.477499961853027
11.207500457763672
11.154999732971191
11.282500267028809
11.492500305175781
11.6875
11.369999885559082
11.407500267028809
11.460000038146973
11.335000038146973
11.302499771118164
10.967499732971191
10.922499656677246
10.822500228881836
10.90999984741211
11.342499732971191
11.53499984741211
11.609999656677246
11.4350004196167
11.175000190734863
11.302499771118164
11.707500457763672
11.680000305175781
11.417499542236328
11.417499542236328
11.34749984741211
11.635000228881836
11.460000038146973
11.337499618530273
11.342499732971191
11.332500457763672
11.319999694824219
11.322500228881836
11.317500114440918
11.47249984741211
11.125
11.087499618530273
11.2524995803833
11.462499618530273
11.654999732971191
11.524999618530273
11.125
11.197500228881836
11.510000228881836
11.592499732971191
11.454999923706055
11.234999656677246
11.357500076293945
11.71500015258789
11.7524995803833
11.430000305175781
11.2524995803833
11.34000015258789
11.522500038146973
11.407500267028809
11.369999885559082
11.3725004196167
11.27750015258789
11.404999732971191
11.22249984741211
11.385000228881836
11.452500343322754
11.487500190734863
11.539999961853027
11.399999618530273
11.130000114440918
11.3100004196167
11.765000343322754
11.457500457763672
11.335000038146973
11.279999732971191
11.407500267028809
11.667499542236328
11.482500076293945
11.5024995803833
11.592499732971191
11.537500381469727
11.532500267028809
11.517499923706055
11.392499923706055
11.262499809265137
11.140000343322754
11.135000228881836
11.282500267028809
11.47249984741211
11.279999732971191
11.444999694824219
11.399999618530273
11.664999961853027
11.3125
11.702500343322754
11.477499961853027
11.4350004196167
11.390000343322754
11.244999885559082
11.069999694824219
10.859999656677246
11.007499694824219
11.3725004196167
11.595000267028809
11.694999694824219
11.337499618530273
11.34749984741211
11.425000190734863
11.475000381469727
11.567500114440918
11.522500038146973
11.524999618530273
11.452500343322754
11.47249984741211
11.069999694824219
10.960000038146973
11.220000267028809
11.332500457763672
11.454999923706055
11.40250015258789
11.337499618530273
11.130000114440918
10.682499885559082
10.887499809265137
10.97249984741211
11.072500228881836
11.114999771118164
11.180000305175781
11.079999923706055
11.380000114440918
11.542499542236328
11.645000457763672
11.4399995803833
11.524999618530273
11.462499618530273
11.507499694824219
11.364999771118164
11.427499771118164
11.444999694824219
11.274999618530273
11.329999923706055
11.270000457763672
11.09000015258789
11.227499961853027
11.407500267028809
10.970000267028809
11.112500190734863
11.162500381469727
11.737500190734863
11.979999542236328
12.055000305175781
11.694999694824219
11.6875
11.837499618530273
11.737500190734863
11.5600004196167
11.787500381469727
11.619999885559082
11.510000228881836
11.390000343322754
11.4399995803833
11.6875
11.635000228881836
11.682499885559082
11.59749984741211
11.4975004196167
11.479999542236328
11.675000190734863
11.7475004196167
11.744999885559082
11.832500457763672
11.807499885559082
11.90999984741211
11.52750015258789
11.487500190734863
11.587499618530273
11.592499732971191
11.739999771118164
11.614999771118164
11.572500228881836
11.52750015258789
11.572500228881836
11.542499542236328
11.484999656677246
11.859999656677246
11.920000076293945
11.729999542236328
11.662500381469727
11.704999923706055
11.802499771118164
11.494999885559082
11.267499923706055
11.392499923706055
11.359999656677246
11.727499961853027
11.574999809265137
11.399999618530273
11.292499542236328
11.380000114440918
11.489999771118164
11.545000076293945
11.960000038146973
11.962499618530273
11.845000267028809
11.647500038146973
11.555000305175781
11.539999961853027
11.672499656677246
11.569999694824219
11.84000015258789
11.84000015258789
11.77750015258789
11.802499771118164
11.845000267028809
11.680000305175781
11.8100004196167
11.767499923706055
11.802499771118164
11.817500114440918
11.84749984741211
11.8725004196167
11.859999656677246
11.550000190734863
11.727499961853027
11.880000114440918
11.72249984741211
11.6875
11.657500267028809
11.515000343322754
11.5649995803833
11.545000076293945
11.59749984741211
11.734999656677246
11.805000305175781
11.692500114440918
11.609999656677246
11.457500457763672
11.797499656677246
11.697500228881836
11.664999961853027
11.8149995803833
11.477499961853027
11.345000267028809
11.444999694824219
11.772500038146973
11.732500076293945
11.547499656677246
11.492500305175781
11.3774995803833
11.524999618530273
11.617500305175781
11.6850004196167
11.609999656677246
11.59000015258789
11.482500076293945
11.614999771118164
11.52750015258789
11.579999923706055
11.447500228881836
11.34749984741211
11.412500381469727
11.704999923706055
11.78499984741211
11.72249984741211
11.457500457763672
11.462499618530273
11.492500305175781
11.510000228881836
11.345000267028809
11.492500305175781
11.3125
11.517499923706055
11.760000228881836
11.760000228881836
11.422499656677246
11.255000114440918
11.132499694824219
11.539999961853027
11.202500343322754
11.050000190734863
11.104999542236328
11.422499656677246
11.682499885559082
11.694999694824219
11.755000114440918
11.757499694824219
11.787500381469727
11.739999771118164
11.732500076293945
11.720000267028809
11.614999771118164
11.482500076293945
11.319999694824219
11.617500305175781
11.642499923706055
11.322500228881836
11.085000038146973
11.117500305175781
11.53499984741211
11.732500076293945
11.760000228881836
11.602499961853027
11.717499732971191
11.6850004196167
11.635000228881836
11.267499923706055
11.510000228881836
11.682499885559082
11.892499923706055
11.797499656677246
11.630000114440918
11.53499984741211
11.46500015258789
11.609999656677246
11.7475004196167
11.677499771118164
11.725000381469727
11.962499618530273
11.702500343322754
11.6225004196167
11.532500267028809
11.787500381469727
11.8725004196167
12.024999618530273
12.25
11.914999961853027
11.842499732971191
11.869999885559082
11.8725004196167
11.517499923706055
11.65250015258789
11.817500114440918
11.737500190734863
11.557499885559082
11.577500343322754
11.614999771118164
11.795000076293945
11.670000076293945
11.617500305175781
11.399999618530273
11.28499984741211
11.522500038146973
11.7524995803833
11.982500076293945
12.074999809265137
11.854999542236328
11.642499923706055
11.762499809265137
11.789999961853027
11.52750015258789
11.4975004196167
11.574999809265137
11.362500190734863
11.422499656677246
11.555000305175781
11.654999732971191
11.457500457763672
11.657500267028809
11.550000190734863
11.630000114440918
11.574999809265137
11.3774995803833
11.524999618530273
11.352499961853027
11.670000076293945
11.727499961853027
11.452500343322754
11.364999771118164
11.572500228881836
11.947500228881836
11.942500114440918
11.960000038146973
11.739999771118164
11.592499732971191
11.367500305175781
11.642499923706055
11.442500114440918
11.6225004196167
11.765000343322754
11.835000038146973
11.7475004196167
11.757499694824219
11.729999542236328
11.960000038146973
11.864999771118164
11.765000343322754
11.757499694824219
11.739999771118164
11.807499885559082
11.90999984741211
12.052499771118164
12.192500114440918
12.182499885559082
12.007499694824219
11.8149995803833
11.617500305175781
11.885000228881836
11.920000076293945
11.77750015258789
11.887499809265137
11.677499771118164
11.949999809265137
11.5600004196167
11.637499809265137
11.662500381469727
11.832500457763672
11.885000228881836
11.850000381469727
11.782500267028809
11.385000228881836
11.029999732971191
11.324999809265137
11.380000114440918
11.529999732971191
11.694999694824219
11.737500190734863
11.65999984741211
11.524999618530273
11.725000381469727
11.75
11.732500076293945
11.5600004196167
11.457500457763672
11.492500305175781
11.795000076293945
11.487500190734863
11.422499656677246
11.375
11.515000343322754
11.3774995803833
11.587499618530273
11.449999809265137
11.862500190734863
11.869999885559082
11.8149995803833
11.699999809265137
11.494999885559082
11.52750015258789
11.65250015258789
11.635000228881836
11.672499656677246
11.600000381469727
11.867500305175781
11.897500038146973
11.977499961853027
12.012499809265137
12.077500343322754
11.592499732971191
11.27750015258789
11.282500267028809
11.757499694824219
11.612500190734863
11.307499885559082
11.229999542236328
11.27750015258789
11.607500076293945
11.59749984741211
11.675000190734863
11.677499771118164
11.664999961853027
11.40999984741211
11.15250015258789
11.479999542236328
11.619999885559082
11.34000015258789
11.457500457763672
11.265000343322754
11.582500457763672
11.717499732971191
11.829999923706055
11.832500457763672
12.020000457763672
12.012499809265137
11.699999809265137
11.619999885559082
11.6225004196167
11.90250015258789
12.02750015258789
12.109999656677246
11.96500015258789
11.970000267028809
11.667499542236328
11.720000267028809
11.732500076293945
11.739999771118164
11.5649995803833
11.470000267028809
11.5024995803833
11.737500190734863
11.399999618530273
11.482500076293945
11.829999923706055
11.967499732971191
11.892499923706055
11.537500381469727
11.6225004196167
11.364999771118164
11.585000038146973
11.712499618530273
11.680000305175781
11.84000015258789
11.8774995803833
12.0600004196167
11.845000267028809
11.987500190734863
12.0024995803833
12.117500305175781
12.079999923706055
12.007499694824219
11.797499656677246
11.657500267028809
11.680000305175781
11.350000381469727
11.270000457763672
11.517499923706055
11.582500457763672
11.65999984741211
11.734999656677246
11.859999656677246
12.017499923706055
12.164999961853027
12.03499984741211
11.8774995803833
11.842499732971191
11.90999984741211
11.824999809265137
11.717499732971191
11.772500038146973
11.614999771118164
11.550000190734863
11.467499732971191
11.352499961853027
11.609999656677246
11.725000381469727
11.960000038146973
12.09749984741211
12.170000076293945
12.244999885559082
12.135000228881836
11.987500190734863
11.72249984741211
11.444999694824219
11.59000015258789
11.670000076293945
11.682499885559082
11.797499656677246
11.947500228881836
11.994999885559082
11.84000015258789
11.727499961853027
11.630000114440918
11.582500457763672
11.517499923706055
11.587499618530273
12.037500381469727
12.22249984741211
11.84749984741211
11.642499923706055
11.6274995803833
11.762499809265137
11.6899995803833
11.640000343322754
11.59000015258789
11.532500267028809
11.492500305175781
11.805000305175781
12.385000228881836
12.154999732971191
12.029999732971191
11.954999923706055
12.125
12.170000076293945
12.337499618530273
12.332500457763672
12.229999542236328
12.322500228881836
12.234999656677246
12.107500076293945
12.15999984741211
11.957500457763672
12.162500381469727
11.967499732971191
11.682499885559082
11.782500267028809
11.907500267028809
11.862500190734863
11.947500228881836
12.102499961853027
12.234999656677246
12.232500076293945
12.194999694824219
12.172499656677246
11.9975004196167
11.694999694824219
11.510000228881836
11.517499923706055
11.630000114440918
11.65999984741211
11.819999694824219
11.760000228881836
11.835000038146973
12.010000228881836
11.845000267028809
11.649999618530273
11.744999885559082
11.97249984741211
11.952500343322754
11.779999732971191
11.46500015258789
11.357500076293945
11.432499885559082
11.40250015258789
11.362500190734863
11.517499923706055
11.510000228881836
11.510000228881836
11.662500381469727
11.545000076293945
11.607500076293945
11.470000267028809
11.489999771118164
11.359999656677246
11.75
11.977499961853027
11.890000343322754
11.882499694824219
11.975000381469727
11.869999885559082
11.96500015258789
12.142499923706055
11.979999542236328
11.792499542236328
11.532500267028809
11.4975004196167
11.170000076293945
11.345000267028809
11.602499961853027
11.770000457763672
11.930000305175781
11.912500381469727
11.857500076293945
11.880000114440918
11.9350004196167
11.8774995803833
11.90999984741211
11.8125
11.882499694824219
11.8774995803833
11.9975004196167
12.092499732971191
11.962499618530273
11.647500038146973
11.75
11.707500457763672
11.8125
11.920000076293945
11.680000305175781
11.357500076293945
11.392499923706055
11.390000343322754
11.517499923706055
11.432499885559082
11.779999732971191
11.932499885559082
11.942500114440918
11.595000267028809
11.694999694824219
11.552499771118164
11.930000305175781
12.104999542236328
12.244999885559082
12.100000381469727
12.302499771118164
12.317500114440918
12.319999694824219
12.244999885559082
11.987500190734863
11.875
11.567500114440918
11.5625
11.744999885559082
12.024999618530273
12.074999809265137
12.067500114440918
12.242500305175781
12.210000038146973
12.020000457763672
12.03499984741211
12.079999923706055
11.904999732971191
11.765000343322754
11.795000076293945
12.0600004196167
11.850000381469727
11.864999771118164
11.984999656677246
12.045000076293945
11.84000015258789
11.842499732971191
11.7524995803833
11.9399995803833
11.845000267028809
12.037500381469727
11.9350004196167
11.920000076293945
11.835000038146973
11.760000228881836
11.802499771118164
11.797499656677246
11.962499618530273
11.845000267028809
11.852499961853027
11.975000381469727
12.375
12.085000038146973
12.03499984741211
11.760000228881836
11.922499656677246
11.845000267028809
11.977499961853027
11.920000076293945
11.774999618530273
11.307499885559082
11.452500343322754
11.667499542236328
12.042499542236328
11.984999656677246
11.7475004196167
11.737500190734863
11.739999771118164
11.727499961853027
11.72249984741211
11.772500038146973
11.9399995803833
11.742500305175781
11.699999809265137
11.6899995803833
11.824999809265137
11.742500305175781
11.517499923706055
11.609999656677246
12.072500228881836
12.092499732971191
11.725000381469727
11.604999542236328
11.550000190734863
11.614999771118164
11.600000381469727
11.707500457763672
11.854999542236328
11.692500114440918
11.772500038146973
11.617500305175781
11.515000343322754
11.507499694824219
11.675000190734863
11.765000343322754
11.739999771118164
11.4975004196167
11.40999984741211
11.609999656677246
11.529999732971191
11.547499656677246
11.727499961853027
11.867500305175781
11.867500305175781
11.732500076293945
11.6274995803833
11.72249984741211
11.675000190734863
12.02750015258789
11.772500038146973
11.992500305175781
11.672499656677246
11.72249984741211
11.484999656677246
11.479999542236328
11.667499542236328
11.8100004196167
12.012499809265137
12.03499984741211
11.869999885559082
11.672499656677246
11.71500015258789
11.675000190734863
11.577500343322754
11.6850004196167
11.6850004196167
11.739999771118164
11.772500038146973
11.757499694824219
11.645000457763672
11.682499885559082
11.65250015258789
11.462499618530273
11.422499656677246
11.857500076293945
11.9375
11.942500114440918
11.952500343322754
11.869999885559082
12.077500343322754
12.0600004196167
12.09000015258789
11.979999542236328
11.970000267028809
11.774999618530273
11.737500190734863
11.707500457763672
11.947500228881836
11.90250015258789
11.862500190734863
12.005000114440918
11.992500305175781
12.145000457763672
12.202500343322754
12.050000190734863
11.550000190734863
11.539999961853027
11.487500190734863
11.84749984741211
11.640000343322754
11.767499923706055
11.65250015258789
11.712499618530273
11.522500038146973
11.772500038146973
12.197500228881836
12.227499961853027
11.977499961853027
11.479999542236328
11.524999618530273
11.692500114440918
11.805000305175781
12.005000114440918
11.90250015258789
11.892499923706055
11.917499542236328
11.837499618530273
11.954999923706055
12.102499961853027
12.162500381469727
11.932499885559082
12.02750015258789
12.037500381469727
12.020000457763672
11.664999961853027
11.604999542236328
11.762499809265137
11.84749984741211
11.890000343322754
11.897500038146973
12.020000457763672
11.912500381469727
11.962499618530273
11.922499656677246
11.869999885559082
11.744999885559082
11.8100004196167
11.885000228881836
11.772500038146973
11.760000228881836
11.767499923706055
11.862500190734863
11.899999618530273
11.772500038146973
11.5649995803833
11.675000190734863
11.72249984741211
12.117500305175781
11.9399995803833
11.897500038146973
11.835000038146973
12.029999732971191
12.0024995803833
11.875
11.787500381469727
11.704999923706055
11.732500076293945
11.5625
11.547499656677246
11.767499923706055
11.725000381469727
11.662500381469727
11.962499618530273
11.949999809265137
11.942500114440918
11.802499771118164
11.885000228881836
11.904999732971191
12.050000190734863
11.9399995803833
11.835000038146973
11.925000190734863
11.887499809265137
11.984999656677246
11.774999618530273
11.859999656677246
11.762499809265137
11.725000381469727
11.782500267028809
11.699999809265137
11.717499732971191
11.77750015258789
11.927499771118164
12.032500267028809
11.729999542236328
11.682499885559082
11.552499771118164
11.78499984741211
11.952500343322754
11.767499923706055
11.742500305175781
11.682499885559082
11.59749984741211
11.53499984741211
11.664999961853027
11.774999618530273
11.664999961853027
12.042499542236328
12.0
11.90250015258789
11.850000381469727
11.927499771118164
11.774999618530273
11.779999732971191
11.859999656677246
11.932499885559082
11.96500015258789
12.194999694824219
12.382499694824219
12.335000038146973
12.322500228881836
12.28499984741211
12.359999656677246
12.055000305175781
12.012499809265137
11.904999732971191
11.635000228881836
11.875
11.827500343322754
11.942500114440918
11.852499961853027
11.987500190734863
11.852499961853027
11.792499542236328
11.742500305175781
11.842499732971191
11.802499771118164
11.792499542236328
11.859999656677246
12.005000114440918
11.852499961853027
11.762499809265137
11.827500343322754
11.962499618530273
12.229999542236328
12.180000305175781
11.914999961853027
11.862500190734863
11.710000038146973
11.869999885559082
11.729999542236328
11.635000228881836
11.739999771118164
11.917499542236328
11.977499961853027
11.829999923706055
12.09749984741211
12.024999618530273
11.944999694824219
11.977499961853027
11.779999732971191
11.797499656677246
11.914999961853027
12.25
12.045000076293945
12.0024995803833
11.517499923706055
10.932499885559082
6.144999980926514
4.03249979019165
4.485000133514404
5.184999942779541
6.067500114440918
6.297500133514404
6.652500152587891
6.894999980926514
7.46999979019165
7.877500057220459
8.037500381469727
7.989999771118164
8.149999618530273
8.657500267028809
