EpRewMean
0.1550000011920929
0.17249999940395355
0.20499999821186066
0.1599999964237213
0.20749999582767487
0.19750000536441803
0.1850000023841858
0.17499999701976776
0.19750000536441803
0.17000000178813934
0.20000000298023224
0.1599999964237213
0.12999999523162842
0.1875
0.1599999964237213
0.20749999582767487
0.19750000536441803
0.18250000476837158
0.20749999582767487
0.20999999344348907
0.16249999403953552
0.2150000035762787
0.19750000536441803
0.21250000596046448
0.2199999988079071
0.19750000536441803
0.15000000596046448
0.1875
0.23749999701976776
0.20499999821186066
0.20250000059604645
0.1525000035762787
0.22750000655651093
0.17749999463558197
0.20250000059604645
0.17499999701976776
0.26499998569488525
0.20250000059604645
0.23999999463558197
0.20000000298023224
0.21250000596046448
0.2199999988079071
0.23499999940395355
0.23250000178813934
0.22499999403953552
0.2874999940395355
0.27250000834465027
0.3199999928474426
0.33250001072883606
0.47999998927116394
0.4300000071525574
0.4925000071525574
0.5024999976158142
0.6349999904632568
0.6150000095367432
0.7475000023841858
0.6825000047683716
0.6974999904632568
0.7524999976158142
0.949999988079071
0.9225000143051147
1.1024999618530273
1.0199999809265137
1.0774999856948853
1.0175000429153442
1.3574999570846558
1.5774999856948853
1.6299999952316284
1.7200000286102295
1.622499942779541
1.75
1.9850000143051147
2.0950000286102295
2.2200000286102295
2.4200000762939453
2.442500114440918
2.494999885559082
2.867500066757202
2.5374999046325684
2.444999933242798
2.5199999809265137
2.622499942779541
2.700000047683716
2.8350000381469727
2.867500066757202
2.994999885559082
2.827500104904175
3.309999942779541
3.490000009536743
3.6449999809265137
3.552500009536743
3.609999895095825
3.6675000190734863
3.9774999618530273
4.039999961853027
3.9600000381469727
3.4749999046325684
3.190000057220459
3.577500104904175
4.025000095367432
4.40749979019165
4.559999942779541
4.809999942779541
5.012499809265137
5.522500038146973
5.712500095367432
6.042500019073486
6.152500152587891
6.53249979019165
6.882500171661377
6.864999771118164
7.172500133514404
7.255000114440918
7.247499942779541
7.6875
7.829999923706055
8.744999885559082
9.295000076293945
9.555000305175781
9.297499656677246
8.792499542236328
8.40999984741211
8.395000457763672
8.369999885559082
8.537500381469727
8.779999732971191
8.819999694824219
9.447500228881836
9.407500267028809
9.125
8.664999961853027
8.670000076293945
9.0
8.850000381469727
8.52750015258789
8.404999732971191
8.295000076293945
8.6899995803833
8.524999618530273
9.732500076293945
10.484999656677246
10.837499618530273
11.899999618530273
11.582500457763672
11.2524995803833
11.442500114440918
11.077500343322754
11.055000305175781
11.140000343322754
11.505000114440918
12.28499984741211
12.350000381469727
12.079999923706055
11.942500114440918
12.017499923706055
12.244999885559082
12.475000381469727
13.109999656677246
13.039999961853027
12.8774995803833
12.332500457763672
11.1274995803833
11.75
11.59749984741211
10.34749984741211
10.77750015258789
10.710000038146973
11.0024995803833
11.625
12.242500305175781
11.984999656677246
12.197500228881836
12.797499656677246
14.012499809265137
14.600000381469727
14.279999732971191
14.385000228881836
13.880000114440918
13.367500305175781
11.975000381469727
11.15250015258789
10.517499923706055
9.927499771118164
9.800000190734863
9.960000038146973
10.282500267028809
11.40999984741211
11.645000457763672
12.012499809265137
11.824999809265137
11.055000305175781
10.524999618530273
11.117500305175781
11.987500190734863
12.505000114440918
12.90250015258789
12.654999732971191
12.100000381469727
11.475000381469727
11.449999809265137
11.96500015258789
13.1899995803833
13.4399995803833
13.130000114440918
13.007499694824219
12.84749984741211
12.552499771118164
12.6875
13.055000305175781
13.02750015258789
13.970000267028809
14.744999885559082
13.817500114440918
12.744999885559082
13.09749984741211
12.302499771118164
12.552499771118164
13.202500343322754
11.242500305175781
10.047499656677246
9.180000305175781
8.4375
8.067500114440918
8.4399995803833
8.552499771118164
9.449999809265137
9.770000457763672
10.717499732971191
10.8725004196167
11.300000190734863
11.859999656677246
12.625
13.59000015258789
13.582500457763672
13.994999885559082
13.7524995803833
13.6899995803833
14.4975004196167
14.71500015258789
15.319999694824219
16.082500457763672
16.862499237060547
16.8174991607666
16.962499618530273
17.487499237060547
17.36750030517578
17.322500228881836
17.157499313354492
17.282499313354492
17.90999984741211
17.342500686645508
18.0625
18.482500076293945
18.44499969482422
18.424999237060547
18.897499084472656
19.762500762939453
19.502500534057617
19.792499542236328
19.80500030517578
19.78499984741211
18.989999771118164
19.270000457763672
19.459999084472656
19.552499771118164
20.102500915527344
20.337499618530273
21.03499984741211
21.204999923706055
20.684999465942383
20.427499771118164
21.329999923706055
21.217500686645508
20.459999084472656
20.329999923706055
19.982500076293945
19.9950008392334
19.270000457763672
19.447500228881836
19.3075008392334
19.5674991607666
19.547500610351562
19.177499771118164
19.582500457763672
20.0
19.577499389648438
19.594999313354492
19.732500076293945
20.107500076293945
19.017499923706055
19.172500610351562
18.90250015258789
17.75749969482422
16.780000686645508
16.922500610351562
16.4950008392334
15.895000457763672
16.06999969482422
16.982500076293945
18.052499771118164
17.709999084472656
18.440000534057617
19.227500915527344
18.96500015258789
18.372499465942383
17.905000686645508
19.017499923706055
18.30500030517578
17.997499465942383
18.739999771118164
18.987499237060547
18.77750015258789
18.342500686645508
17.3125
16.850000381469727
16.350000381469727
16.375
16.622499465942383
16.864999771118164
17.665000915527344
18.145000457763672
18.237499237060547
17.737499237060547
18.137500762939453
18.662500381469727
19.59000015258789
19.309999465942383
19.88249969482422
20.8700008392334
21.327499389648438
21.28499984741211
20.905000686645508
20.94499969482422
21.127500534057617
21.9325008392334
22.290000915527344
22.65250015258789
22.732500076293945
22.68000030517578
23.315000534057617
22.229999542236328
21.797500610351562
21.315000534057617
21.342500686645508
21.837499618530273
21.102500915527344
21.600000381469727
22.30500030517578
22.462499618530273
20.922500610351562
21.040000915527344
21.482500076293945
21.727500915527344
21.80500030517578
21.287500381469727
21.915000915527344
22.487499237060547
22.864999771118164
22.907499313354492
23.282499313354492
23.014999389648438
23.732500076293945
24.440000534057617
25.05500030517578
25.392499923706055
25.00749969482422
25.135000228881836
24.7450008392334
24.1825008392334
24.497499465942383
23.732500076293945
23.772499084472656
23.75
23.837499618530273
23.809999465942383
23.59000015258789
23.104999542236328
22.537500381469727
22.362499237060547
22.594999313354492
22.235000610351562
22.174999237060547
22.96500015258789
22.962499618530273
23.267499923706055
22.725000381469727
22.767499923706055
22.665000915527344
22.27750015258789
22.052499771118164
22.8174991607666
23.520000457763672
23.709999084472656
23.459999084472656
23.232500076293945
22.18000030517578
21.162500381469727
20.1875
19.102500915527344
19.427499771118164
18.7450008392334
19.100000381469727
19.065000534057617
18.325000762939453
17.30500030517578
16.989999771118164
16.672500610351562
16.612499237060547
17.637500762939453
16.989999771118164
17.514999389648438
18.217500686645508
17.852500915527344
17.079999923706055
16.40250015258789
16.6924991607666
16.639999389648438
16.302499771118164
16.827499389648438
17.530000686645508
18.915000915527344
18.65250015258789
19.114999771118164
19.61750030517578
20.1825008392334
20.197500228881836
20.645000457763672
20.725000381469727
21.90250015258789
21.517499923706055
22.1825008392334
22.912500381469727
23.087499618530273
23.292499542236328
23.61750030517578
23.987499237060547
23.582500457763672
22.627500534057617
23.22249984741211
22.90999984741211
23.030000686645508
23.017499923706055
23.13249969482422
23.979999542236328
24.200000762939453
24.7450008392334
25.427499771118164
25.877500534057617
25.917499542236328
26.969999313354492
27.147499084472656
27.354999542236328
27.8700008392334
28.040000915527344
27.24250030517578
26.612499237060547
26.334999084472656
25.86750030517578
24.602500915527344
23.899999618530273
23.857500076293945
24.395000457763672
23.767499923706055
24.042499542236328
24.31999969482422
24.982500076293945
25.5674991607666
26.21500015258789
26.612499237060547
26.21500015258789
26.905000686645508
26.8125
26.707500457763672
26.337499618530273
25.887500762939453
26.024999618530273
26.420000076293945
26.047500610351562
26.357500076293945
26.3125
26.4424991607666
26.329999923706055
25.834999084472656
25.834999084472656
25.360000610351562
25.822500228881836
25.415000915527344
25.485000610351562
25.002500534057617
24.822500228881836
24.962499618530273
25.155000686645508
25.042499542236328
24.47249984741211
25.625
25.717500686645508
25.207500457763672
25.360000610351562
25.602500915527344
26.489999771118164
26.71500015258789
26.56999969482422
26.985000610351562
26.485000610351562
26.0575008392334
25.524999618530273
25.457500457763672
25.125
24.327499389648438
24.077499389648438
23.612499237060547
23.440000534057617
23.260000228881836
23.274999618530273
24.077499389648438
24.61750030517578
25.09000015258789
25.822500228881836
25.614999771118164
25.700000762939453
25.639999389648438
26.15250015258789
26.735000610351562
26.862499237060547
27.225000381469727
28.014999389648438
28.579999923706055
29.274999618530273
28.84749984741211
28.850000381469727
28.825000762939453
28.037500381469727
28.232500076293945
28.372499465942383
28.024999618530273
28.022499084472656
28.31999969482422
27.9325008392334
27.707500457763672
26.802499771118164
25.672500610351562
25.88249969482422
25.252500534057617
25.079999923706055
25.262500762939453
25.7450008392334
25.934999465942383
26.520000457763672
27.21500015258789
27.915000915527344
27.8700008392334
28.302499771118164
27.94499969482422
27.969999313354492
27.809999465942383
26.962499618530273
26.732500076293945
25.852500915527344
26.592500686645508
27.247499465942383
27.3125
27.372499465942383
27.297500610351562
26.987499237060547
27.510000228881836
27.40999984741211
27.237499237060547
27.260000228881836
27.832500457763672
28.530000686645508
29.3075008392334
30.0575008392334
30.282499313354492
30.782499313354492
30.3700008392334
30.017499923706055
29.422500610351562
27.962499618530273
26.704999923706055
26.40999984741211
26.53499984741211
26.852500915527344
27.485000610351562
28.282499313354492
29.684999465942383
29.827499389648438
29.979999542236328
30.24250030517578
29.690000534057617
30.040000915527344
30.212499618530273
28.872499465942383
28.71500015258789
28.65999984741211
29.3075008392334
29.219999313354492
29.354999542236328
29.767499923706055
30.5049991607666
30.760000228881836
30.65999984741211
30.1825008392334
30.25749969482422
30.114999771118164
29.397499084472656
29.462499618530273
29.969999313354492
31.077499389648438
30.732500076293945
31.267499923706055
31.485000610351562
31.627500534057617
31.792499542236328
31.71500015258789
31.2450008392334
31.077499389648438
30.50749969482422
30.272499084472656
29.674999237060547
29.827499389648438
29.475000381469727
29.1924991607666
28.922500610351562
30.344999313354492
30.53499984741211
30.712499618530273
30.707500457763672
31.350000381469727
31.389999389648438
31.78499984741211
30.975000381469727
30.94499969482422
30.84000015258789
30.592500686645508
30.40250015258789
29.81999969482422
30.424999237060547
30.452499389648438
31.0575008392334
31.545000076293945
31.860000610351562
31.407499313354492
31.71500015258789
31.11750030517578
30.6825008392334
30.157499313354492
29.157499313354492
29.202499389648438
29.399999618530273
29.405000686645508
29.832500457763672
30.15250015258789
31.177499771118164
31.36750030517578
31.417499542236328
31.78499984741211
31.844999313354492
31.704999923706055
31.43000030517578
31.440000534057617
31.012500762939453
31.600000381469727
31.114999771118164
30.860000610351562
29.912500381469727
29.897499084472656
29.517499923706055
29.592500686645508
29.4375
29.407499313354492
29.372499465942383
29.53499984741211
29.987499237060547
29.364999771118164
29.462499618530273
29.260000228881836
30.122499465942383
29.077499389648438
28.997499465942383
28.982500076293945
28.584999084472656
27.607500076293945
27.207500457763672
26.969999313354492
25.297500610351562
24.405000686645508
24.212499618530273
24.077499389648438
24.072500228881836
24.899999618530273
26.190000534057617
26.787500381469727
27.547500610351562
27.975000381469727
28.954999923706055
29.485000610351562
29.032499313354492
29.49250030517578
29.575000762939453
29.549999237060547
29.872499465942383
28.8125
28.5049991607666
27.5049991607666
27.895000457763672
28.0
28.03499984741211
28.202499389648438
27.30500030517578
27.125
27.212499618530273
27.167499542236328
27.3075008392334
27.55500030517578
27.584999084472656
28.954999923706055
29.477500915527344
29.862499237060547
29.760000228881836
30.094999313354492
30.719999313354492
31.174999237060547
31.072500228881836
31.287500381469727
31.774999618530273
32.404998779296875
32.8650016784668
32.4474983215332
32.3125
31.704999923706055
31.012500762939453
30.892499923706055
30.809999465942383
30.739999771118164
30.795000076293945
30.827499389648438
29.22249984741211
28.329999923706055
27.645000457763672
26.575000762939453
26.162500381469727
25.427499771118164
26.71500015258789
27.610000610351562
28.1924991607666
28.549999237060547
29.674999237060547
29.6924991607666
30.022499084472656
30.06999969482422
30.212499618530273
30.360000610351562
30.094999313354492
30.78499984741211
31.19499969482422
30.905000686645508
31.542499542236328
31.197500228881836
31.975000381469727
32.307498931884766
31.905000686645508
31.93000030517578
31.74250030517578
31.977500915527344
32.439998626708984
31.950000762939453
32.119998931884766
32.0525016784668
31.440000534057617
31.99250030517578
31.592500686645508
31.612499237060547
32.189998626708984
32.48249816894531
31.997499465942383
32.627498626708984
32.665000915527344
32.90250015258789
32.80500030517578
32.09000015258789
31.74250030517578
32.24250030517578
31.707500457763672
30.852500915527344
31.05500030517578
31.252500534057617
32.20500183105469
32.255001068115234
31.622499465942383
32.165000915527344
32.70000076293945
31.96500015258789
31.822500228881836
31.56999969482422
31.8125
31.102500915527344
30.655000686645508
31.1200008392334
31.0
31.162500381469727
31.22249984741211
31.1299991607666
31.790000915527344
31.612499237060547
31.657499313354492
31.917499542236328
31.532499313354492
31.672500610351562
31.142499923706055
30.912500381469727
31.915000915527344
31.332500457763672
31.260000228881836
31.90250015258789
31.012500762939453
30.572500228881836
30.260000228881836
29.8799991607666
29.7549991607666
29.542499542236328
30.075000762939453
30.052499771118164
30.462499618530273
30.452499389648438
31.047500610351562
31.56999969482422
31.6200008392334
31.924999237060547
32.540000915527344
32.27000045776367
31.905000686645508
32.1150016784668
32.51499938964844
32.602500915527344
32.564998626708984
31.822500228881836
32.162498474121094
32.380001068115234
32.27000045776367
32.39500045776367
32.1775016784668
32.21500015258789
32.43000030517578
32.94499969482422
32.95750045776367
32.842498779296875
32.52750015258789
32.06999969482422
32.275001525878906
31.63249969482422
31.202499389648438
31.3700008392334
31.549999237060547
31.825000762939453
32.314998626708984
32.02000045776367
32.192501068115234
33.002498626708984
32.42250061035156
32.17499923706055
31.762500762939453
31.469999313354492
31.667499542236328
31.645000457763672
31.170000076293945
31.989999771118164
32.380001068115234
32.942501068115234
33.3025016784668
33.067501068115234
32.82749938964844
32.89500045776367
32.505001068115234
32.247501373291016
32.029998779296875
32.310001373291016
32.35499954223633
31.997499465942383
32.38750076293945
32.20000076293945
31.9950008392334
32.79499816894531
32.5099983215332
32.21500015258789
32.584999084472656
32.584999084472656
32.6875
33.537498474121094
33.532501220703125
33.0525016784668
33.30500030517578
33.8125
33.89500045776367
34.377498626708984
34.397499084472656
34.380001068115234
34.47999954223633
34.619998931884766
34.022499084472656
33.912498474121094
33.60499954223633
32.64500045776367
31.667499542236328
31.852500915527344
31.290000915527344
32.08000183105469
31.979999542236328
32.04999923706055
32.51250076293945
33.75749969482422
33.58250045776367
33.67250061035156
34.067501068115234
34.66749954223633
34.372501373291016
33.98249816894531
32.81999969482422
32.91999816894531
33.19499969482422
33.11000061035156
32.747501373291016
32.040000915527344
31.897499084472656
31.782499313354492
31.459999084472656
31.1200008392334
31.079999923706055
31.190000534057617
30.957500457763672
31.3174991607666
31.537500381469727
31.372499465942383
30.822500228881836
30.954999923706055
31.237499237060547
31.770000457763672
31.579999923706055
31.237499237060547
31.479999542236328
31.8075008392334
32.102500915527344
31.537500381469727
31.65250015258789
31.517499923706055
31.852500915527344
32.334999084472656
31.582500457763672
32.002498626708984
31.362499237060547
31.502500534057617
31.337499618530273
31.72249984741211
32.10749816894531
31.452499389648438
31.834999084472656
32.56999969482422
32.65250015258789
33.04750061035156
33.04499816894531
33.29750061035156
33.227500915527344
32.57500076293945
32.36750030517578
31.997499465942383
32.0525016784668
31.30500030517578
31.56999969482422
31.8174991607666
32.35499954223633
32.875
33.060001373291016
33.4375
33.15250015258789
32.625
32.842498779296875
32.627498626708984
32.592498779296875
32.4275016784668
32.459999084472656
33.119998931884766
33.26750183105469
32.755001068115234
33.377498626708984
33.650001525878906
32.942501068115234
32.85749816894531
32.712501525878906
33.00749969482422
32.55500030517578
32.0525016784668
32.11249923706055
32.67499923706055
32.83250045776367
32.51250076293945
32.63999938964844
32.689998626708984
32.61249923706055
32.72999954223633
32.375
31.78499984741211
30.987499237060547
30.985000610351562
30.475000381469727
30.239999771118164
30.15250015258789
31.094999313354492
31.772499084472656
32.002498626708984
32.727500915527344
32.85499954223633
33.06999969482422
33.150001525878906
32.752498626708984
32.654998779296875
33.317501068115234
32.94499969482422
32.712501525878906
32.79750061035156
32.567501068115234
32.244998931884766
32.959999084472656
33.279998779296875
34.022499084472656
34.127498626708984
33.73500061035156
33.002498626708984
32.650001525878906
32.13750076293945
31.235000610351562
30.762500762939453
30.614999771118164
31.354999542236328
32.157501220703125
32.49250030517578
32.557498931884766
32.814998626708984
32.727500915527344
32.99250030517578
32.92499923706055
32.877498626708984
32.290000915527344
32.752498626708984
32.63249969482422
32.477500915527344
31.985000610351562
31.454999923706055
31.274999618530273
31.267499923706055
31.420000076293945
31.190000534057617
31.147499084472656
31.767499923706055
31.729999542236328
31.924999237060547
32.397499084472656
32.779998779296875
32.45500183105469
33.04249954223633
32.400001525878906
32.497501373291016
32.22249984741211
32.26250076293945
32.334999084472656
32.68000030517578
32.244998931884766
32.119998931884766
32.522499084472656
31.674999237060547
31.760000228881836
31.392499923706055
31.517499923706055
32.0625
31.905000686645508
32.397499084472656
32.997501373291016
33.6775016784668
33.83000183105469
33.439998626708984
33.61750030517578
33.627498626708984
33.349998474121094
32.42250061035156
32.09749984741211
32.60499954223633
32.49250030517578
32.67250061035156
32.432498931884766
33.79750061035156
33.84000015258789
34.15250015258789
34.09749984741211
33.57500076293945
33.86000061035156
33.900001525878906
33.537498474121094
33.94499969482422
33.76750183105469
33.64250183105469
34.185001373291016
34.36249923706055
34.147499084472656
33.70000076293945
33.842498779296875
34.27750015258789
33.89250183105469
33.51250076293945
32.39250183105469
32.352500915527344
32.19499969482422
30.947500228881836
31.155000686645508
31.424999237060547
32.209999084472656
31.875
31.639999389648438
31.489999771118164
32.032501220703125
31.512500762939453
31.922500610351562
31.982500076293945
31.3799991607666
32.03499984741211
31.959999084472656
32.21500015258789
31.170000076293945
31.532499313354492
31.52750015258789
31.049999237060547
30.594999313354492
30.375
30.532499313354492
30.165000915527344
30.065000534057617
30.485000610351562
31.077499389648438
31.75749969482422
31.454999923706055
31.81999969482422
32.28499984741211
32.915000915527344
32.39500045776367
31.65999984741211
31.5625
32.185001373291016
31.924999237060547
31.727500915527344
31.639999389648438
32.157501220703125
32.25
32.369998931884766
32.442501068115234
32.5
33.002498626708984
32.4900016784668
32.5099983215332
32.64500045776367
32.349998474121094
31.670000076293945
31.857500076293945
31.532499313354492
31.4950008392334
31.985000610351562
32.397499084472656
32.904998779296875
33.15250015258789
32.932498931884766
32.915000915527344
33.130001068115234
32.622501373291016
32.092498779296875
32.224998474121094
31.857500076293945
32.502498626708984
32.807498931884766
33.26750183105469
33.44499969482422
32.787498474121094
32.432498931884766
32.47999954223633
31.885000228881836
31.552499771118164
31.440000534057617
31.482500076293945
31.172500610351562
30.672500610351562
30.690000534057617
30.002500534057617
29.885000228881836
30.084999084472656
30.412500381469727
30.565000534057617
30.770000457763672
31.40999984741211
32.01250076293945
32.279998779296875
32.34749984741211
32.005001068115234
32.29499816894531
32.037498474121094
32.13249969482422
32.279998779296875
32.787498474121094
33.26750183105469
33.619998931884766
34.337501525878906
34.415000915527344
34.349998474121094
34.79249954223633
34.837501525878906
34.935001373291016
34.63999938964844
34.380001068115234
34.147499084472656
33.7599983215332
33.06999969482422
32.76499938964844
32.650001525878906
32.33000183105469
31.829999923706055
32.04999923706055
32.209999084472656
31.875
31.684999465942383
32.09000015258789
32.39250183105469
32.83000183105469
33.290000915527344
32.88999938964844
33.345001220703125
34.00749969482422
34.07500076293945
33.522499084472656
32.85749816894531
32.625
32.439998626708984
31.647499084472656
31.325000762939453
30.997499465942383
31.737499237060547
32.07749938964844
32.47999954223633
33.119998931884766
33.415000915527344
33.747501373291016
33.66749954223633
34.0
33.537498474121094
32.5099983215332
32.647499084472656
32.217498779296875
32.13999938964844
32.10499954223633
31.825000762939453
32.38999938964844
32.25749969482422
32.1775016784668
32.592498779296875
32.73749923706055
33.032501220703125
33.13999938964844
33.227500915527344
33.35499954223633
32.65250015258789
32.61000061035156
32.182498931884766
31.34749984741211
31.165000915527344
30.977500915527344
31.032499313354492
30.887500762939453
31.142499923706055
31.8075008392334
32.27000045776367
32.75749969482422
33.084999084472656
33.497501373291016
33.4375
33.220001220703125
33.529998779296875
33.3650016784668
32.98749923706055
32.814998626708984
33.29249954223633
33.23749923706055
32.74250030517578
32.25749969482422
32.727500915527344
32.477500915527344
32.1875
31.90250015258789
32.057498931884766
31.852500915527344
31.61750030517578
31.377500534057617
31.697500228881836
31.729999542236328
32.08000183105469
32.1775016784668
32.595001220703125
32.25749969482422
32.217498779296875
32.689998626708984
32.95000076293945
32.127498626708984
31.877500534057617
31.735000610351562
32.790000915527344
32.80500030517578
32.58250045776367
32.98749923706055
33.54249954223633
33.92499923706055
33.470001220703125
33.877498626708984
33.85499954223633
33.49250030517578
33.779998779296875
33.38249969482422
33.474998474121094
32.592498779296875
31.850000381469727
30.707500457763672
29.792499542236328
30.030000686645508
29.670000076293945
30.204999923706055
30.399999618530273
31.96500015258789
32.32500076293945
32.58250045776367
32.7400016784668
33.119998931884766
32.619998931884766
32.532501220703125
32.41999816894531
32.97249984741211
33.147499084472656
33.35499954223633
33.272499084472656
33.834999084472656
33.58250045776367
32.584999084472656
32.595001220703125
32.86000061035156
32.6875
32.665000915527344
33.04249954223633
33.57500076293945
33.93000030517578
33.317501068115234
34.18000030517578
33.8650016784668
33.29999923706055
33.002498626708984
33.067501068115234
33.09000015258789
32.9474983215332
32.77000045776367
33.20249938964844
33.165000915527344
32.73749923706055
32.932498931884766
33.01250076293945
32.61750030517578
31.872499465942383
32.17499923706055
31.540000915527344
31.594999313354492
31.227500915527344
31.6299991607666
31.827499389648438
31.832500457763672
32.162498474121094
32.79750061035156
33.26499938964844
32.85499954223633
32.872501373291016
32.67250061035156
33.162498474121094
32.85499954223633
32.252498626708984
32.16999816894531
32.337501525878906
32.622501373291016
32.584999084472656
32.52750015258789
32.622501373291016
32.6349983215332
32.74250030517578
33.3650016784668
33.782501220703125
34.217498779296875
34.04999923706055
34.154998779296875
33.86750030517578
34.130001068115234
34.474998474121094
34.102500915527344
33.61249923706055
33.20750045776367
33.0
32.41999816894531
31.747499465942383
32.04750061035156
32.022499084472656
31.94499969482422
32.51499938964844
33.407501220703125
33.89250183105469
33.70750045776367
33.48249816894531
33.97999954223633
34.07749938964844
34.20750045776367
33.727500915527344
33.6150016784668
33.50749969482422
33.9375
33.654998779296875
32.74250030517578
32.377498626708984
33.092498779296875
32.60749816894531
32.15250015258789
32.400001525878906
32.619998931884766
31.86750030517578
31.875
32.092498779296875
32.290000915527344
32.59000015258789
32.782501220703125
32.98749923706055
33.147499084472656
32.852500915527344
32.189998626708984
31.65250015258789
31.9325008392334
31.997499465942383
31.34749984741211
31.607500076293945
32.04999923706055
32.45249938964844
32.31999969482422
32.79750061035156
32.77000045776367
32.79999923706055
32.397499084472656
33.08000183105469
32.907501220703125
32.709999084472656
32.1875
32.497501373291016
33.314998626708984
32.53499984741211
32.342498779296875
32.5625
32.79999923706055
33.88999938964844
34.212501525878906
34.15250015258789
34.5099983215332
35.032501220703125
35.3025016784668
34.92499923706055
34.92250061035156
34.20500183105469
34.154998779296875
34.567501068115234
34.369998931884766
34.3025016784668
33.79999923706055
33.61750030517578
33.99250030517578
34.022499084472656
33.744998931884766
33.462501525878906
33.32749938964844
33.5
33.345001220703125
33.122501373291016
33.127498626708984
33.057498931884766
33.88249969482422
34.154998779296875
34.40250015258789
34.54499816894531
34.63249969482422
34.65250015258789
34.625
34.17250061035156
33.912498474121094
34.06999969482422
34.48500061035156
34.5525016784668
34.45500183105469
34.467498779296875
34.997501373291016
34.939998626708984
34.397499084472656
33.6875
33.53499984741211
33.76250076293945
34.002498626708984
33.6349983215332
33.18000030517578
33.084999084472656
32.82749938964844
32.63249969482422
32.29499816894531
32.13249969482422
32.07749938964844
32.59000015258789
32.875
32.98249816894531
32.970001220703125
32.98249816894531
33.54750061035156
33.8849983215332
33.564998626708984
34.032501220703125
34.02000045776367
33.959999084472656
33.96500015258789
33.787498474121094
34.38750076293945
