EpRewMean
1.5942028760910034
2.0502092838287354
1.8780487775802612
1.847499966621399
1.7899999618530273
1.350000023841858
1.7000000476837158
1.899999976158142
2.3499999046325684
2.125
1.9249999523162842
1.774999976158142
1.725000023841858
1.6749999523162842
1.899999976158142
2.075000047683716
2.2249999046325684
2.1500000953674316
2.0
1.9249999523162842
2.174999952316284
2.2249999046325684
2.375
2.132499933242798
2.007499933242798
2.0250000953674316
2.049999952316284
2.25
1.8324999809265137
1.7575000524520874
1.850000023841858
1.875
1.7825000286102295
1.5325000286102295
1.5325000286102295
1.7825000286102295
1.7050000429153442
1.6950000524520874
2.2799999713897705
2.547499895095825
2.3575000762939453
2.299999952316284
2.0
2.0250000953674316
2.307499885559082
1.9900000095367432
2.140000104904175
2.2149999141693115
2.140000104904175
2.1500000953674316
2.0
2.200000047683716
2.2249999046325684
2.200000047683716
2.299999952316284
2.299999952316284
2.0999999046325684
2.575000047683716
2.700000047683716
2.375
2.575000047683716
2.575000047683716
2.200000047683716
2.0999999046325684
2.3499999046325684
2.299999952316284
2.200000047683716
2.5
2.6575000286102295
2.6075000762939453
2.5
2.299999952316284
2.125
2.4075000286102295
2.7249999046325684
2.507499933242798
2.5399999618530273
3.1575000286102295
2.7249999046325684
2.75
2.950000047683716
3.007499933242798
2.7325000762939453
2.8399999141693115
2.700000047683716
3.3575000762939453
2.674999952316284
2.450000047683716
2.950000047683716
2.5999999046325684
3.0
2.799999952316284
2.75
3.0824999809265137
3.200000047683716
3.325000047683716
2.924999952316284
2.8324999809265137
3.1649999618530273
3.174999952316284
3.174999952316284
3.132499933242798
3.2249999046325684
3.375
3.3499999046325684
3.5250000953674316
3.4574999809265137
3.4825000762939453
2.7750000953674316
3.200000047683716
3.4749999046325684
3.2750000953674316
3.200000047683716
2.924999952316284
2.799999952316284
2.950000047683716
3.299999952316284
3.2249999046325684
3.674999952316284
3.375
3.6500000953674316
3.132499933242798
3.2149999141693115
3.132499933242798
3.440000057220459
3.140000104904175
3.375
3.5250000953674316
3.3399999141693115
3.625
3.807499885559082
3.575000047683716
3.4000000953674316
4.0
3.4000000953674316
3.575000047683716
3.4749999046325684
4.525000095367432
3.799999952316284
3.299999952316284
3.5824999809265137
3.757499933242798
3.7750000953674316
3.9000000953674316
3.4000000953674316
3.424999952316284
3.6500000953674316
3.682499885559082
3.7325000762939453
3.7825000286102295
3.875
4.164999961853027
3.2799999713897705
4.074999809265137
3.7899999618530273
3.5399999618530273
3.549999952316284
3.549999952316284
3.557499885559082
3.557499885559082
3.7149999141693115
4.332499980926514
4.050000190734863
3.9000000953674316
3.682499885559082
3.7325000762939453
3.5
3.5999999046325684
4.107500076293945
3.825000047683716
4.107500076293945
3.507499933242798
3.5824999809265137
3.825000047683716
4.099999904632568
4.025000095367432
3.875
4.574999809265137
4.050000190734863
4.150000095367432
3.700000047683716
3.9000000953674316
4.025000095367432
3.75
3.549999952316284
3.799999952316284
4.574999809265137
4.150000095367432
3.450000047683716
4.175000190734863
4.675000190734863
3.674999952316284
4.150000095367432
4.150000095367432
4.275000095367432
4.050000190734863
4.074999809265137
4.207499980926514
3.825000047683716
4.349999904632568
4.300000190734863
4.125
4.275000095367432
4.207499980926514
3.700000047683716
3.924999952316284
4.525000095367432
4.0
4.875
4.074999809265137
4.03249979019165
3.7750000953674316
4.050000190734863
4.349999904632568
4.574999809265137
4.107500076293945
4.40749979019165
4.175000190734863
4.207499980926514
4.357500076293945
4.257500171661377
4.125
4.0
4.199999809265137
4.150000095367432
4.382500171661377
4.007500171661377
4.307499885559082
4.349999904632568
4.53249979019165
4.707499980926514
4.307499885559082
4.057499885559082
4.25
4.275000095367432
4.224999904632568
4.349999904632568
4.732500076293945
4.324999809265137
4.349999904632568
4.457499980926514
4.53249979019165
4.699999809265137
4.099999904632568
4.307499885559082
4.307499885559082
4.224999904632568
4.78249979019165
4.599999904632568
4.425000190734863
4.275000095367432
4.400000095367432
4.324999809265137
4.632500171661377
4.557499885559082
4.5
4.574999809265137
4.175000190734863
4.050000190734863
4.125
4.25
4.5
4.650000095367432
4.050000190734863
4.324999809265137
3.9749999046325684
4.050000190734863
4.550000190734863
4.599999904632568
4.300000190734863
4.400000095367432
4.625
4.382500171661377
4.432499885559082
3.9749999046325684
4.150000095367432
4.525000095367432
4.224999904632568
4.400000095367432
4.474999904632568
3.924999952316284
4.25
4.800000190734863
4.175000190734863
4.300000190734863
4.949999809265137
5.025000095367432
4.349999904632568
4.625
4.675000190734863
4.474999904632568
4.224999904632568
4.324999809265137
4.599999904632568
4.699999809265137
4.625
4.824999809265137
4.675000190734863
4.699999809265137
4.857500076293945
5.03249979019165
4.875
4.775000095367432
4.574999809265137
4.574999809265137
4.699999809265137
4.400000095367432
4.724999904632568
5.207499980926514
4.75
4.849999904632568
4.75
4.875
4.875
4.875
4.699999809265137
4.599999904632568
5.332499980926514
4.900000095367432
4.375
4.449999809265137
4.875
4.849999904632568
5.074999809265137
5.050000190734863
4.775000095367432
5.050000190734863
4.824999809265137
5.224999904632568
4.925000190734863
4.875
4.932499885559082
5.132500171661377
5.050000190734863
4.699999809265137
4.425000190734863
4.75
5.349999904632568
4.949999809265137
4.875
5.107500076293945
4.982500076293945
5.150000095367432
5.432499885559082
5.307499885559082
5.582499980926514
5.525000095367432
5.150000095367432
4.199999809265137
4.75
5.300000190734863
5.224999904632568
4.800000190734863
5.074999809265137
5.199999809265137
5.074999809265137
5.175000190734863
4.650000095367432
5.349999904632568
5.150000095367432
5.400000095367432
5.074999809265137
4.875
5.125
5.300000190734863
5.25
4.900000095367432
4.599999904632568
4.5
4.724999904632568
5.550000190734863
5.349999904632568
5.75
5.400000095367432
5.525000095367432
5.324999809265137
5.449999809265137
5.150000095367432
5.650000095367432
5.574999809265137
5.125
5.449999809265137
5.75
5.5
5.5
5.699999809265137
5.775000095367432
5.724999904632568
5.650000095367432
5.5
4.925000190734863
5.150000095367432
5.300000190734863
5.324999809265137
5.574999809265137
5.875
5.125
4.974999904632568
5.340000152587891
5.625
5.775000095367432
5.974999904632568
5.550000190734863
5.625
5.332499980926514
5.425000190734863
5.199999809265137
5.324999809265137
5.53249979019165
5.849999904632568
5.449999809265137
5.625
5.775000095367432
5.650000095367432
5.900000095367432
5.974999904632568
5.949999809265137
5.849999904632568
5.724999904632568
5.400000095367432
5.400000095367432
5.5
5.300000190734863
5.775000095367432
5.974999904632568
5.949999809265137
6.175000190734863
5.824999809265137
5.625
5.699999809265137
5.574999809265137
5.574999809265137
5.275000095367432
5.432499885559082
5.650000095367432
5.974999904632568
5.75
5.75
6.125
5.900000095367432
6.125
6.074999809265137
5.800000190734863
5.425000190734863
5.699999809265137
5.900000095367432
5.699999809265137
6.300000190734863
6.324999809265137
6.0
5.574999809265137
5.824999809265137
5.664999961853027
5.940000057220459
5.650000095367432
6.199999809265137
5.800000190734863
5.699999809265137
6.125
6.082499980926514
6.082499980926514
6.425000190734863
5.857500076293945
6.375
6.15749979019165
6.014999866485596
5.957499980926514
6.090000152587891
5.732500076293945
5.889999866485596
6.025000095367432
6.057499885559082
6.074999809265137
6.207499980926514
6.232500076293945
6.050000190734863
5.832499980926514
5.940000057220459
6.025000095367432
6.047500133514404
5.932499885559082
5.824999809265137
6.257500171661377
6.457499980926514
6.307499885559082
6.432499885559082
6.474999904632568
6.474999904632568
6.050000190734863
6.574999809265137
6.574999809265137
6.239999771118164
6.522500038146973
6.247499942779541
6.482500076293945
6.75
6.732500076293945
6.664999961853027
6.389999866485596
6.607500076293945
6.707499980926514
6.732500076293945
6.824999809265137
6.324999809265137
6.472499847412109
6.307499885559082
6.175000190734863
6.40749979019165
6.107500076293945
6.175000190734863
6.400000095367432
6.449999809265137
6.675000190734863
6.25
6.107500076293945
6.139999866485596
6.324999809265137
6.107500076293945
5.8125
6.497499942779541
6.957499980926514
6.137499809265137
6.130000114440918
6.329999923706055
6.46999979019165
6.422500133514404
5.977499961853027
6.664999961853027
6.739999771118164
6.164999961853027
6.652500152587891
6.387499809265137
7.019999980926514
7.002500057220459
6.802499771118164
6.730000019073486
6.84499979019165
6.684999942779541
6.545000076293945
6.982500076293945
6.65500020980835
6.317500114440918
6.702499866485596
7.019999980926514
6.607500076293945
6.667500019073486
6.824999809265137
6.632500171661377
6.75
6.659999847412109
6.617499828338623
6.735000133514404
6.974999904632568
7.0
6.912499904632568
6.75
6.527500152587891
6.747499942779541
7.135000228881836
7.037499904632568
6.815000057220459
6.887499809265137
6.987500190734863
6.84499979019165
6.690000057220459
7.052499771118164
6.900000095367432
6.960000038146973
6.485000133514404
6.534999847412109
7.15500020980835
6.849999904632568
6.534999847412109
6.644999980926514
7.162499904632568
6.787499904632568
6.492499828338623
6.539999961853027
6.6875
6.472499847412109
6.84499979019165
6.84499979019165
6.914999961853027
7.132500171661377
6.934999942779541
6.465000152587891
6.565000057220459
6.552499771118164
6.860000133514404
6.84250020980835
6.912499904632568
6.807499885559082
6.802499771118164
6.804999828338623
6.972499847412109
7.267499923706055
7.077499866485596
6.987500190734863
7.0
6.934999942779541
6.847499847412109
7.054999828338623
7.102499961853027
6.965000152587891
6.78249979019165
7.447500228881836
6.942500114440918
6.675000190734863
6.775000095367432
7.300000190734863
6.90500020980835
7.197500228881836
7.059999942779541
7.082499980926514
7.175000190734863
6.610000133514404
6.53000020980835
6.869999885559082
7.182499885559082
7.047500133514404
7.15749979019165
7.3125
7.507500171661377
7.052499771118164
7.170000076293945
7.327499866485596
7.264999866485596
7.267499923706055
7.554999828338623
7.522500038146973
7.644999980926514
7.422500133514404
7.545000076293945
7.362500190734863
7.587500095367432
7.332499980926514
7.707499980926514
7.302499771118164
7.397500038146973
7.142499923706055
7.767499923706055
7.442500114440918
7.357500076293945
7.542500019073486
7.809999942779541
7.512499809265137
7.152500152587891
7.697500228881836
7.445000171661377
7.460000038146973
7.800000190734863
7.679999828338623
7.482500076293945
7.385000228881836
7.947500228881836
7.932499885559082
8.079999923706055
8.21500015258789
7.78249979019165
7.612500190734863
7.697500228881836
8.352499961853027
8.092499732971191
7.992499828338623
7.894999980926514
7.752500057220459
7.875
8.225000381469727
7.985000133514404
8.244999885559082
8.430000305175781
8.460000038146973
8.645000457763672
8.607500076293945
8.487500190734863
8.072500228881836
7.857500076293945
8.335000038146973
8.204999923706055
8.3125
8.732500076293945
8.664999961853027
8.7475004196167
8.362500190734863
8.237500190734863
8.505000114440918
8.662500381469727
8.27750015258789
8.697500228881836
8.864999771118164
8.819999694824219
8.707500457763672
8.672499656677246
9.117500305175781
8.8149995803833
9.015000343322754
8.550000190734863
8.600000381469727
8.822500228881836
8.84000015258789
9.010000228881836
8.71500015258789
8.699999809265137
9.135000228881836
8.732500076293945
8.517499923706055
8.717499732971191
8.454999923706055
8.895000457763672
8.792499542236328
8.454999923706055
9.039999961853027
8.694999694824219
8.617500305175781
8.75
8.792499542236328
9.1875
9.119999885559082
8.710000038146973
8.8774995803833
8.880000114440918
9.257499694824219
9.055000305175781
8.702500343322754
8.892499923706055
8.922499656677246
8.914999961853027
9.145000457763672
9.489999771118164
9.302499771118164
9.0
9.135000228881836
8.930000305175781
8.944999694824219
8.897500038146973
8.8125
9.132499694824219
8.757499694824219
8.779999732971191
9.132499694824219
8.984999656677246
9.265000343322754
8.7524995803833
8.697500228881836
9.02750015258789
8.994999885559082
8.517499923706055
8.617500305175781
8.572500228881836
8.5625
9.09000015258789
8.982500076293945
9.329999923706055
9.412500381469727
9.46500015258789
9.032500267028809
8.484999656677246
8.805000305175781
9.047499656677246
9.577500343322754
9.077500343322754
9.322500228881836
9.042499542236328
8.954999923706055
8.52750015258789
8.97249984741211
9.547499656677246
9.645000457763672
8.774999618530273
8.852499961853027
8.677499771118164
8.90250015258789
9.3125
9.170000076293945
9.397500038146973
9.220000267028809
9.279999732971191
8.944999694824219
9.199999809265137
9.047499656677246
9.057499885559082
8.982500076293945
9.21500015258789
9.520000457763672
9.380000114440918
9.569999694824219
9.167499542236328
9.232500076293945
8.897500038146973
9.414999961853027
9.260000228881836
8.65250015258789
8.970000267028809
9.385000228881836
9.2524995803833
9.295000076293945
9.140000343322754
9.324999809265137
9.635000228881836
9.270000457763672
8.982500076293945
8.510000228881836
8.960000038146973
9.107500076293945
9.477499961853027
9.039999961853027
9.130000114440918
9.270000457763672
9.317500114440918
9.904999732971191
9.332500457763672
9.022500038146973
9.460000038146973
9.614999771118164
9.395000457763672
9.862500190734863
9.857500076293945
9.65999984741211
9.569999694824219
9.537500381469727
9.755000114440918
9.505000114440918
9.727499961853027
9.4350004196167
9.595000267028809
9.529999732971191
9.475000381469727
9.920000076293945
9.319999694824219
9.5
9.262499809265137
9.09000015258789
9.414999961853027
9.399999618530273
9.734999656677246
9.832500457763672
9.520000457763672
9.53499984741211
9.449999809265137
9.914999961853027
9.6875
9.720000267028809
9.677499771118164
9.932499885559082
9.532500267028809
9.802499771118164
9.617500305175781
9.720000267028809
9.324999809265137
9.297499656677246
9.717499732971191
9.800000190734863
9.817500114440918
9.422499656677246
9.470000267028809
9.802499771118164
9.789999961853027
10.047499656677246
9.817500114440918
9.7524995803833
9.779999732971191
9.949999809265137
9.475000381469727
9.970000267028809
9.6850004196167
9.467499732971191
9.375
9.557499885559082
9.942500114440918
9.762499809265137
9.607500076293945
9.657500267028809
9.34000015258789
9.392499923706055
9.332500457763672
9.675000190734863
9.9375
9.6274995803833
9.524999618530273
9.944999694824219
9.585000038146973
9.529999732971191
9.755000114440918
9.805000305175781
9.702500343322754
10.005000114440918
9.977499961853027
10.287500381469727
9.892499923706055
9.850000381469727
10.630000114440918
9.962499618530273
9.582500457763672
9.494999885559082
9.949999809265137
10.162500381469727
9.462499618530273
9.380000114440918
10.024999618530273
9.72249984741211
9.789999961853027
10.067500114440918
9.837499618530273
9.864999771118164
10.09000015258789
10.057499885559082
10.037500381469727
9.817500114440918
9.907500267028809
9.84749984741211
9.932499885559082
10.147500038146973
9.807499885559082
9.767499923706055
9.647500038146973
9.899999618530273
9.729999542236328
10.257499694824219
9.949999809265137
9.835000038146973
9.922499656677246
10.21500015258789
9.657500267028809
10.022500038146973
9.899999618530273
9.692500114440918
9.774999618530273
9.6875
9.364999771118164
9.055000305175781
10.0600004196167
9.9399995803833
9.862500190734863
10.244999885559082
10.022500038146973
9.5600004196167
9.704999923706055
9.882499694824219
10.0
10.25
9.917499542236328
9.292499542236328
9.369999885559082
9.734999656677246
9.354999542236328
9.52750015258789
9.857500076293945
9.7524995803833
9.867500305175781
10.28499984741211
10.352499961853027
10.1274995803833
10.037500381469727
10.052499771118164
10.0600004196167
10.265000343322754
9.882499694824219
9.930000305175781
10.09749984741211
9.704999923706055
9.767499923706055
10.017499923706055
10.267499923706055
10.017499923706055
10.387499809265137
10.712499618530273
10.182499885559082
10.3774995803833
9.930000305175781
10.345000267028809
10.770000457763672
10.242500305175781
10.239999771118164
10.327500343322754
10.300000190734863
10.4399995803833
10.045000076293945
9.645000457763672
9.927499771118164
10.202500343322754
10.042499542236328
10.225000381469727
10.274999618530273
10.220000267028809
10.167499542236328
10.279999732971191
9.859999656677246
9.755000114440918
9.545000076293945
10.132499694824219
9.725000381469727
9.7524995803833
10.09749984741211
10.052499771118164
10.172499656677246
10.390000343322754
9.944999694824219
10.192500114440918
10.140000343322754
10.432499885559082
10.260000228881836
10.237500190734863
10.425000190734863
10.482500076293945
10.207500457763672
9.890000343322754
10.239999771118164
10.239999771118164
10.682499885559082
10.489999771118164
10.262499809265137
10.012499809265137
10.470000267028809
10.47249984741211
9.947500228881836
10.15999984741211
10.407500267028809
10.282500267028809
9.930000305175781
10.444999694824219
10.3149995803833
10.369999885559082
10.3100004196167
10.142499923706055
10.125
10.194999694824219
10.25
10.367500305175781
9.927499771118164
10.282500267028809
9.887499809265137
10.039999961853027
10.630000114440918
10.342499732971191
10.117500305175781
10.322500228881836
10.417499542236328
10.147500038146973
10.2475004196167
10.602499961853027
10.055000305175781
9.96500015258789
10.237500190734863
10.100000381469727
10.262499809265137
10.140000343322754
10.279999732971191
10.337499618530273
10.422499656677246
9.897500038146973
10.430000305175781
10.085000038146973
9.712499618530273
10.217499732971191
9.710000038146973
9.960000038146973
10.3125
10.142499923706055
9.967499732971191
10.147500038146973
10.22249984741211
10.364999771118164
10.422499656677246
10.1899995803833
10.367500305175781
10.492500305175781
10.369999885559082
10.104999542236328
10.354999542236328
10.260000228881836
10.279999732971191
10.260000228881836
10.40999984741211
10.53499984741211
10.342499732971191
10.682499885559082
10.302499771118164
10.422499656677246
10.835000038146973
10.28499984741211
10.484999656677246
10.717499732971191
10.619999885559082
10.734999656677246
10.630000114440918
10.767499923706055
10.982500076293945
10.602499961853027
10.362500190734863
9.90999984741211
10.192500114440918
10.510000228881836
10.635000228881836
10.117500305175781
10.107500076293945
10.2475004196167
10.922499656677246
10.862500190734863
10.487500190734863
10.524999618530273
10.395000457763672
10.1875
10.380000114440918
10.6225004196167
10.042499542236328
9.977499961853027
10.460000038146973
10.364999771118164
10.202500343322754
9.797499656677246
10.21500015258789
10.90250015258789
10.697500228881836
10.770000457763672
10.907500267028809
10.680000305175781
10.427499771118164
10.352499961853027
10.279999732971191
10.112500190734863
10.520000457763672
10.380000114440918
10.772500038146973
10.422499656677246
10.130000114440918
10.177499771118164
10.677499771118164
10.845000267028809
10.375
10.957500457763672
10.5649995803833
10.632499694824219
10.635000228881836
10.2524995803833
10.292499542236328
10.457500457763672
10.5600004196167
10.854999542236328
10.642499923706055
10.979999542236328
10.832500457763672
10.364999771118164
10.545000076293945
10.625
10.380000114440918
10.432499885559082
10.707500457763672
10.34000015258789
10.59749984741211
10.267499923706055
10.854999542236328
11.207500457763672
10.149999618530273
10.25
10.362500190734863
10.15250015258789
10.449999809265137
10.890000343322754
10.595000267028809
10.4399995803833
10.702500343322754
10.515000343322754
10.835000038146973
10.375
10.649999618530273
10.244999885559082
10.697500228881836
10.614999771118164
10.612500190734863
10.227499961853027
10.272500038146973
10.802499771118164
10.782500267028809
10.765000343322754
10.899999618530273
10.927499771118164
10.917499542236328
10.592499732971191
10.71500015258789
10.850000381469727
11.010000228881836
10.989999771118164
11.494999885559082
10.970000267028809
10.479999542236328
10.380000114440918
10.267499923706055
11.095000267028809
10.882499694824219
10.835000038146973
10.630000114440918
10.952500343322754
10.587499618530273
10.267499923706055
10.757499694824219
10.890000343322754
10.147500038146973
10.467499732971191
10.5625
10.52750015258789
10.572500228881836
10.760000228881836
10.710000038146973
10.65250015258789
10.960000038146973
11.109999656677246
10.557499885559082
10.342499732971191
10.517499923706055
10.837499618530273
10.742500305175781
10.885000228881836
10.774999618530273
10.970000267028809
10.802499771118164
10.704999923706055
10.494999885559082
10.25
10.760000228881836
10.707500457763672
11.042499542236328
10.832500457763672
10.717499732971191
10.59749984741211
10.332500457763672
10.317500114440918
10.885000228881836
10.612500190734863
10.395000457763672
10.567500114440918
11.022500038146973
10.819999694824219
10.72249984741211
10.717499732971191
10.720000267028809
10.572500228881836
10.510000228881836
10.47249984741211
10.5649995803833
10.845000267028809
10.484999656677246
10.65999984741211
10.90250015258789
10.864999771118164
10.8100004196167
10.805000305175781
10.930000305175781
10.460000038146973
10.380000114440918
10.717499732971191
10.2524995803833
10.212499618530273
10.487500190734863
10.78499984741211
10.760000228881836
11.02750015258789
10.359999656677246
10.642499923706055
10.8149995803833
10.21500015258789
10.720000267028809
11.057499885559082
10.862500190734863
10.920000076293945
10.850000381469727
11.135000228881836
10.992500305175781
10.637499809265137
10.75
10.772500038146973
10.557499885559082
10.604999542236328
10.75
10.767499923706055
11.137499809265137
10.800000190734863
10.720000267028809
10.532500267028809
11.017499923706055
10.532500267028809
10.657500267028809
10.9350004196167
10.904999732971191
10.4975004196167
10.65999984741211
10.550000190734863
10.692500114440918
10.852499961853027
10.737500190734863
10.529999732971191
10.552499771118164
10.335000038146973
10.78499984741211
10.692500114440918
11.0625
10.90999984741211
10.569999694824219
10.8774995803833
10.880000114440918
10.607500076293945
10.869999885559082
10.867500305175781
11.324999809265137
10.732500076293945
10.84000015258789
10.607500076293945
10.962499618530273
10.887499809265137
11.085000038146973
11.119999885559082
10.882499694824219
10.837499618530273
10.587499618530273
10.632499694824219
10.97249984741211
10.96500015258789
10.582500457763672
10.375
10.59000015258789
10.8725004196167
10.954999923706055
11.029999732971191
11.0024995803833
10.912500381469727
10.52750015258789
10.6875
10.532500267028809
10.5625
10.524999618530273
10.8100004196167
10.774999618530273
11.0600004196167
10.744999885559082
10.595000267028809
10.967499732971191
10.862500190734863
10.702500343322754
11.119999885559082
10.869999885559082
10.819999694824219
10.567500114440918
11.03499984741211
10.97249984741211
10.53499984741211
10.547499656677246
10.880000114440918
10.897500038146973
10.670000076293945
10.257499694824219
10.522500038146973
10.602499961853027
10.930000305175781
10.907500267028809
10.5625
10.4975004196167
10.697500228881836
11.109999656677246
10.967499732971191
10.800000190734863
10.9350004196167
10.8774995803833
10.787500381469727
10.72249984741211
11.005000114440918
10.532500267028809
10.792499542236328
10.52750015258789
10.77750015258789
10.800000190734863
10.467499732971191
10.885000228881836
10.65999984741211
10.517499923706055
10.585000038146973
10.579999923706055
10.835000038146973
10.595000267028809
10.630000114440918
11.180000305175781
11.020000457763672
10.782500267028809
10.704999923706055
10.892499923706055
10.772500038146973
10.9350004196167
10.994999885559082
10.602499961853027
11.170000076293945
10.9350004196167
10.857500076293945
10.78499984741211
11.03499984741211
11.02750015258789
10.829999923706055
10.65999984741211
10.682499885559082
10.757499694824219
10.907500267028809
10.970000267028809
11.239999771118164
11.28499984741211
10.837499618530273
10.897500038146973
10.970000267028809
11.3100004196167
10.757499694824219
10.625
11.077500343322754
10.522500038146973
10.520000457763672
10.654999732971191
10.619999885559082
10.654999732971191
11.007499694824219
11.095000267028809
10.517499923706055
10.604999542236328
10.770000457763672
10.647500038146973
10.9399995803833
10.494999885559082
10.712499618530273
10.71500015258789
10.582500457763672
10.257499694824219
10.734999656677246
10.922499656677246
11.015000343322754
10.927499771118164
11.069999694824219
11.0
10.854999542236328
10.380000114440918
10.229999542236328
10.6875
11.042499542236328
10.7524995803833
10.832500457763672
11.0600004196167
11.029999732971191
10.824999809265137
10.975000381469727
10.600000381469727
11.0600004196167
10.885000228881836
10.632499694824219
10.912500381469727
10.6875
10.887499809265137
11.487500190734863
10.52750015258789
10.84749984741211
10.640000343322754
10.9399995803833
10.819999694824219
11.0024995803833
10.862500190734863
11.172499656677246
11.095000267028809
10.8149995803833
10.949999809265137
10.962499618530273
10.5
10.707500457763672
10.952500343322754
10.757499694824219
10.53499984741211
11.03499984741211
11.1274995803833
10.4375
10.757499694824219
10.515000343322754
10.787500381469727
11.302499771118164
11.020000457763672
10.922499656677246
10.907500267028809
11.109999656677246
10.710000038146973
11.125
10.770000457763672
11.3125
11.255000114440918
10.987500190734863
11.162500381469727
11.1899995803833
11.125
11.197500228881836
11.03499984741211
10.782500267028809
11.0
11.1899995803833
11.177499771118164
11.462499618530273
11.1899995803833
11.037500381469727
10.899999618530273
11.0
10.75
11.100000381469727
11.067500114440918
10.9350004196167
11.380000114440918
11.114999771118164
10.9350004196167
11.0649995803833
10.859999656677246
11.142499923706055
11.164999961853027
10.9350004196167
10.727499961853027
10.6899995803833
10.625
10.912500381469727
11.012499809265137
10.635000228881836
10.387499809265137
10.84000015258789
10.770000457763672
11.082500457763672
10.960000038146973
11.207500457763672
11.430000305175781
11.550000190734863
10.979999542236328
10.949999809265137
