EpRewMean
0.7692307829856873
2.5776891708374023
2.942500114440918
3.1024999618530273
3.3350000381469727
3.380000114440918
3.122499942779541
2.994999885559082
3.0399999618530273
3.1575000286102295
3.247499942779541
3.047499895095825
2.952500104904175
3.0625
3.240000009536743
3.322499990463257
3.3975000381469727
3.4100000858306885
3.1600000858306885
3.122499942779541
3.177500009536743
3.127500057220459
3.0274999141693115
3.3475000858306885
3.172499895095825
3.007499933242798
3.0625
2.9649999141693115
2.9049999713897705
2.9200000762939453
3.0350000858306885
2.8975000381469727
2.765000104904175
2.507499933242798
2.797499895095825
3.067500114440918
3.069999933242798
3.0374999046325684
3.240000009536743
3.125
3.122499942779541
3.4124999046325684
3.327500104904175
3.2750000953674316
3.1549999713897705
3.1600000858306885
3.202500104904175
3.422499895095825
3.367500066757202
3.259999990463257
3.077500104904175
3.127500057220459
2.944999933242798
3.072499990463257
3.1050000190734863
2.9600000381469727
2.997499942779541
3.0950000286102295
3.2249999046325684
3.252500057220459
3.0199999809265137
3.0824999809265137
3.0425000190734863
2.884999990463257
2.9774999618530273
2.9200000762939453
2.7799999713897705
2.9649999141693115
3.25
3.255000114440918
3.3550000190734863
3.3575000762939453
3.572499990463257
3.805000066757202
3.7899999618530273
3.700000047683716
3.692500114440918
3.744999885559082
3.7074999809265137
3.9600000381469727
3.9124999046325684
3.807499885559082
3.7950000762939453
3.809999942779541
3.8375000953674316
3.802500009536743
3.702500104904175
3.359999895095825
3.25
3.2149999141693115
3.237499952316284
3.4024999141693115
3.4725000858306885
3.5250000953674316
3.4024999141693115
3.2774999141693115
3.317500114440918
3.3499999046325684
3.442500114440918
3.6649999618530273
3.797499895095825
4.002500057220459
4.085000038146973
3.9700000286102295
3.9674999713897705
3.882499933242798
3.7274999618530273
3.5975000858306885
3.6649999618530273
3.680000066757202
3.5924999713897705
3.609999895095825
3.7950000762939453
3.7225000858306885
3.815000057220459
4.070000171661377
3.9825000762939453
3.930000066757202
3.827500104904175
3.9649999141693115
3.934999942779541
3.672499895095825
3.807499885559082
3.7325000762939453
4.177499771118164
4.074999809265137
3.9674999713897705
3.927500009536743
4.057499885559082
4.192500114440918
3.9725000858306885
3.827500104904175
3.737499952316284
3.757499933242798
3.747499942779541
4.079999923706055
4.227499961853027
4.159999847412109
4.130000114440918
4.159999847412109
3.940000057220459
3.7799999713897705
3.9749999046325684
4.105000019073486
4.045000076293945
4.137499809265137
4.227499961853027
4.514999866485596
4.474999904632568
4.447500228881836
4.257500171661377
3.9149999618530273
3.875
3.992500066757202
4.09499979019165
3.9200000762939453
3.994999885559082
4.175000190734863
4.184999942779541
4.262499809265137
4.227499961853027
4.21999979019165
4.40749979019165
4.434999942779541
4.442500114440918
4.599999904632568
4.394999980926514
4.372499942779541
4.514999866485596
4.644999980926514
4.817500114440918
4.724999904632568
4.567500114440918
4.517499923706055
4.602499961853027
4.617499828338623
4.837500095367432
4.630000114440918
4.482500076293945
4.382500171661377
4.28000020980835
4.324999809265137
4.207499980926514
4.40749979019165
4.425000190734863
4.585000038146973
4.422500133514404
4.402500152587891
4.28000020980835
4.337500095367432
4.507500171661377
4.527500152587891
4.577499866485596
4.505000114440918
4.662499904632568
4.747499942779541
4.735000133514404
4.392499923706055
4.545000076293945
4.364999771118164
4.635000228881836
4.732500076293945
4.642499923706055
4.440000057220459
4.5
4.84250020980835
4.817500114440918
4.829999923706055
4.985000133514404
4.949999809265137
4.607500076293945
4.829999923706055
4.965000152587891
4.644999980926514
4.570000171661377
4.485000133514404
4.40749979019165
4.352499961853027
4.822500228881836
4.872499942779541
4.502500057220459
4.212500095367432
4.204999923706055
4.295000076293945
4.337500095367432
4.59499979019165
4.605000019073486
4.519999980926514
4.557499885559082
4.542500019073486
4.617499828338623
4.652500152587891
4.900000095367432
4.867499828338623
4.992499828338623
4.800000190734863
4.787499904632568
4.735000133514404
4.800000190734863
4.644999980926514
4.929999828338623
4.954999923706055
5.014999866485596
5.010000228881836
5.047500133514404
4.997499942779541
5.005000114440918
5.087500095367432
4.90500020980835
4.739999771118164
5.039999961853027
5.085000038146973
5.1875
5.380000114440918
5.215000152587891
4.872499942779541
4.767499923706055
4.872499942779541
4.822500228881836
5.03000020980835
4.922500133514404
5.072500228881836
5.03249979019165
5.082499980926514
4.942500114440918
5.15500020980835
5.322500228881836
5.027500152587891
5.177499771118164
5.21999979019165
5.494999885559082
5.860000133514404
6.027500152587891
5.760000228881836
5.389999866485596
5.587500095367432
5.494999885559082
5.434999942779541
5.565000057220459
5.710000038146973
5.505000114440918
5.452499866485596
5.572500228881836
5.554999828338623
5.610000133514404
5.607500076293945
5.349999904632568
5.25
5.139999866485596
5.287499904632568
5.507500171661377
5.465000152587891
5.90500020980835
5.590000152587891
5.510000228881836
5.387499809265137
5.53249979019165
5.534999847412109
5.925000190734863
5.855000019073486
5.857500076293945
5.630000114440918
5.994999885559082
6.037499904632568
6.322500228881836
6.369999885559082
6.204999923706055
6.362500190734863
6.369999885559082
6.642499923706055
6.795000076293945
6.735000133514404
6.582499980926514
6.389999866485596
6.440000057220459
6.315000057220459
6.602499961853027
6.712500095367432
6.764999866485596
6.722499847412109
6.847499847412109
6.697500228881836
6.289999961853027
6.380000114440918
6.847499847412109
6.980000019073486
6.514999866485596
6.65500020980835
6.690000057220459
6.659999847412109
6.392499923706055
6.585000038146973
6.599999904632568
6.617499828338623
6.792500019073486
6.735000133514404
6.574999809265137
6.072500228881836
6.054999828338623
6.434999942779541
6.552499771118164
6.690000057220459
6.952499866485596
7.09499979019165
7.034999847412109
6.627500057220459
6.300000190734863
6.130000114440918
6.300000190734863
6.642499923706055
6.702499866485596
6.772500038146973
7.019999980926514
7.349999904632568
7.019999980926514
6.809999942779541
6.512499809265137
6.922500133514404
6.722499847412109
6.769999980926514
6.635000228881836
6.807499885559082
6.755000114440918
6.932499885559082
6.585000038146973
6.927499771118164
7.190000057220459
7.03000020980835
6.940000057220459
6.757500171661377
6.772500038146973
6.857500076293945
7.28249979019165
6.857500076293945
6.927499771118164
7.117499828338623
6.889999866485596
7.0625
6.920000076293945
6.65500020980835
6.760000228881836
6.772500038146973
6.84250020980835
7.067500114440918
6.962500095367432
7.272500038146973
7.75
7.815000057220459
7.574999809265137
7.195000171661377
7.269999980926514
7.195000171661377
7.440000057220459
7.872499942779541
8.067500114440918
8.212499618530273
8.037500381469727
7.987500190734863
7.78000020980835
7.84250020980835
7.755000114440918
7.617499828338623
7.775000095367432
8.255000114440918
8.647500038146973
8.807499885559082
8.512499809265137
8.292499542236328
7.53249979019165
7.739999771118164
7.917500019073486
8.220000267028809
8.397500038146973
8.587499618530273
8.875
8.59749984741211
8.329999923706055
8.125
7.902500152587891
7.445000171661377
7.372499942779541
7.045000076293945
7.347499847412109
8.0600004196167
8.172499656677246
8.1850004196167
8.020000457763672
7.795000076293945
8.114999771118164
7.872499942779541
7.627500057220459
7.882500171661377
8.045000076293945
8.585000038146973
9.279999732971191
9.53499984741211
9.382499694824219
9.362500190734863
9.265000343322754
9.1875
8.582500457763672
8.557499885559082
8.467499732971191
8.3125
8.6850004196167
8.432499885559082
8.412500381469727
8.3725004196167
8.675000190734863
8.654999732971191
9.095000267028809
9.427499771118164
9.729999542236328
9.407500267028809
8.977499961853027
9.067500114440918
8.867500305175781
9.024999618530273
8.774999618530273
9.042499542236328
8.78499984741211
9.057499885559082
8.552499771118164
8.352499961853027
8.6875
8.484999656677246
8.947500228881836
9.119999885559082
8.932499885559082
9.300000190734863
9.449999809265137
9.057499885559082
8.757499694824219
9.287500381469727
9.444999694824219
9.710000038146973
9.657500267028809
9.300000190734863
9.430000305175781
9.585000038146973
10.1274995803833
10.037500381469727
9.72249984741211
9.1850004196167
9.237500190734863
9.087499618530273
9.1274995803833
9.21500015258789
9.0600004196167
8.949999809265137
9.199999809265137
9.5600004196167
9.524999618530273
9.710000038146973
9.342499732971191
9.149999618530273
9.234999656677246
9.359999656677246
9.869999885559082
9.569999694824219
9.430000305175781
9.202500343322754
9.217499732971191
9.137499809265137
9.3149995803833
9.322500228881836
9.21500015258789
8.917499542236328
8.737500190734863
8.84000015258789
9.050000190734863
9.270000457763672
9.457500457763672
9.5
9.452500343322754
9.852499961853027
10.40250015258789
10.095000267028809
10.157500267028809
9.640000343322754
9.227499961853027
9.175000190734863
8.954999923706055
8.619999885559082
8.755000114440918
8.920000076293945
9.407500267028809
9.75
10.145000457763672
9.854999542236328
9.59749984741211
10.202500343322754
10.375
9.9975004196167
9.8100004196167
9.520000457763672
9.09749984741211
9.300000190734863
9.4375
9.537500381469727
8.977499961853027
8.960000038146973
8.930000305175781
8.942500114440918
9.489999771118164
10.2475004196167
10.15250015258789
10.524999618530273
10.555000305175781
9.864999771118164
10.079999923706055
10.100000381469727
9.869999885559082
9.957500457763672
9.6850004196167
9.592499732971191
9.65250015258789
9.619999885559082
9.84000015258789
9.952500343322754
9.487500190734863
9.397500038146973
9.5625
9.762499809265137
9.170000076293945
9.199999809265137
9.199999809265137
9.082500457763672
9.557499885559082
9.52750015258789
9.927499771118164
10.050000190734863
10.487500190734863
10.175000190734863
9.875
9.567500114440918
9.6274995803833
9.4975004196167
9.979999542236328
9.8725004196167
9.682499885559082
10.237500190734863
10.28499984741211
10.017499923706055
10.932499885559082
10.212499618530273
10.479999542236328
10.9975004196167
10.492500305175781
10.397500038146973
10.557499885559082
10.032500267028809
10.507499694824219
10.265000343322754
9.944999694824219
9.949999809265137
9.432499885559082
9.727499961853027
10.149999618530273
10.112500190734863
10.232500076293945
10.542499542236328
10.385000228881836
10.420000076293945
9.957500457763672
9.842499732971191
9.350000381469727
9.367500305175781
9.037500381469727
9.385000228881836
9.832500457763672
9.797499656677246
10.0649995803833
9.984999656677246
9.555000305175781
9.77750015258789
9.692500114440918
9.4350004196167
9.417499542236328
9.274999618530273
9.172499656677246
9.484999656677246
9.619999885559082
9.662500381469727
9.65999984741211
9.649999618530273
9.602499961853027
10.020000457763672
10.484999656677246
10.244999885559082
10.042499542236328
9.892499923706055
9.7524995803833
9.380000114440918
9.857500076293945
9.795000076293945
10.1274995803833
10.487500190734863
10.140000343322754
10.292499542236328
10.282500267028809
9.667499542236328
9.755000114440918
9.640000343322754
9.772500038146973
10.3725004196167
10.162500381469727
10.175000190734863
9.869999885559082
9.369999885559082
9.422499656677246
9.114999771118164
9.167499542236328
9.762499809265137
9.887499809265137
10.147500038146973
10.267499923706055
9.529999732971191
9.492500305175781
9.550000190734863
9.430000305175781
9.487500190734863
9.422499656677246
9.682499885559082
9.4975004196167
9.220000267028809
9.289999961853027
9.149999618530273
9.047499656677246
9.397500038146973
9.582500457763672
9.797499656677246
9.767499923706055
9.9399995803833
10.02750015258789
10.029999732971191
10.077500343322754
10.145000457763672
9.9399995803833
10.0625
9.90250015258789
9.557499885559082
9.572500228881836
9.342499732971191
9.100000381469727
9.364999771118164
9.609999656677246
9.71500015258789
10.177499771118164
10.492500305175781
10.537500381469727
10.970000267028809
10.359999656677246
10.112500190734863
9.869999885559082
9.47249984741211
9.524999618530273
9.649999618530273
9.569999694824219
9.680000305175781
9.512499809265137
9.172499656677246
9.239999771118164
9.27750015258789
9.345000267028809
9.40999984741211
9.640000343322754
10.0024995803833
9.824999809265137
10.227499961853027
9.927499771118164
9.942500114440918
10.02750015258789
10.2524995803833
10.47249984741211
10.032500267028809
9.862500190734863
9.96500015258789
9.7524995803833
9.7524995803833
9.7524995803833
9.852499961853027
9.550000190734863
9.967499732971191
10.237500190734863
10.319999694824219
10.3100004196167
10.407500267028809
10.479999542236328
10.239999771118164
10.232500076293945
9.727499961853027
9.770000457763672
10.300000190734863
10.800000190734863
10.792499542236328
10.550000190734863
10.005000114440918
9.317500114440918
9.012499809265137
8.875
8.710000038146973
9.114999771118164
9.757499694824219
9.882499694824219
10.177499771118164
10.279999732971191
10.282500267028809
10.760000228881836
10.667499542236328
11.329999923706055
10.662500381469727
10.145000457763672
10.069999694824219
9.904999732971191
10.239999771118164
10.545000076293945
10.880000114440918
9.77750015258789
9.637499809265137
9.880000114440918
10.067500114440918
10.827500343322754
10.635000228881836
10.602499961853027
10.5024995803833
10.395000457763672
10.34749984741211
9.702500343322754
10.114999771118164
9.845000267028809
10.15250015258789
10.704999923706055
9.802499771118164
10.27750015258789
10.28499984741211
9.542499542236328
9.449999809265137
8.944999694824219
9.199999809265137
9.417499542236328
9.6274995803833
9.96500015258789
9.942500114440918
10.182499885559082
10.142499923706055
9.982500076293945
9.317500114440918
9.017499923706055
9.109999656677246
9.270000457763672
9.369999885559082
9.672499656677246
9.612500190734863
9.887499809265137
10.132499694824219
10.257499694824219
10.079999923706055
9.5649995803833
9.542499542236328
9.475000381469727
9.822500228881836
9.947500228881836
10.34749984741211
10.4975004196167
10.617500305175781
10.1274995803833
10.242500305175781
9.942500114440918
9.697500228881836
9.585000038146973
9.664999961853027
10.047499656677246
10.359999656677246
11.024999618530273
11.012499809265137
10.8725004196167
10.7475004196167
10.425000190734863
10.510000228881836
10.72249984741211
10.697500228881836
10.479999542236328
10.289999961853027
9.857500076293945
9.670000076293945
9.897500038146973
9.942500114440918
10.579999923706055
10.792499542236328
10.382499694824219
10.407500267028809
10.770000457763672
10.614999771118164
10.895000457763672
10.770000457763672
10.40250015258789
10.5
10.029999732971191
10.212499618530273
10.387499809265137
10.25
10.7475004196167
10.630000114440918
10.72249984741211
11.21500015258789
11.039999961853027
10.677499771118164
10.9375
10.567500114440918
10.710000038146973
11.082500457763672
11.055000305175781
11.102499961853027
11.130000114440918
10.307499885559082
9.989999771118164
10.220000267028809
10.067500114440918
10.22249984741211
10.6225004196167
10.632499694824219
10.40999984741211
10.795000076293945
10.734999656677246
11.042499542236328
10.837499618530273
10.667499542236328
10.020000457763672
9.824999809265137
9.947500228881836
9.8725004196167
10.867500305175781
10.612500190734863
10.680000305175781
11.125
11.012499809265137
11.300000190734863
11.282500267028809
10.774999618530273
10.852499961853027
10.842499732971191
11.1899995803833
11.462499618530273
11.5600004196167
11.647500038146973
11.72249984741211
11.130000114440918
11.329999923706055
11.452500343322754
11.270000457763672
11.380000114440918
11.774999618530273
11.774999618530273
11.692500114440918
11.3774995803833
11.307499885559082
11.0649995803833
11.444999694824219
12.1899995803833
12.335000038146973
12.592499732971191
12.789999961853027
12.09749984741211
11.842499732971191
11.835000038146973
11.917499542236328
12.270000457763672
12.742500305175781
13.342499732971191
13.197500228881836
12.957500457763672
13.267499923706055
13.387499809265137
12.914999961853027
12.864999771118164
12.567500114440918
12.8149995803833
13.107500076293945
13.654999732971191
13.829999923706055
13.4975004196167
13.125
13.319999694824219
13.382499694824219
13.654999732971191
13.755000114440918
13.077500343322754
12.40250015258789
12.385000228881836
12.640000343322754
12.869999885559082
12.957500457763672
12.989999771118164
12.447500228881836
12.345000267028809
12.444999694824219
12.880000114440918
12.5600004196167
12.75
12.337499618530273
12.3100004196167
12.522500038146973
12.3774995803833
12.697500228881836
12.680000305175781
12.755000114440918
13.202500343322754
13.1274995803833
13.270000457763672
13.207500457763672
12.8149995803833
12.470000267028809
12.717499732971191
12.522500038146973
12.257499694824219
12.90250015258789
12.992500305175781
13.055000305175781
12.835000038146973
13.417499542236328
13.732500076293945
13.425000190734863
13.430000305175781
13.157500267028809
13.012499809265137
13.257499694824219
13.422499656677246
13.345000267028809
12.5625
12.864999771118164
12.582500457763672
13.432499885559082
13.947500228881836
13.795000076293945
13.319999694824219
13.085000038146973
12.852499961853027
13.095000267028809
13.392499923706055
13.667499542236328
13.672499656677246
13.734999656677246
13.3774995803833
13.067500114440918
13.619999885559082
12.819999694824219
12.859999656677246
13.457500457763672
13.582500457763672
13.074999809265137
13.385000228881836
13.0024995803833
12.427499771118164
12.234999656677246
12.765000343322754
12.489999771118164
12.532500267028809
12.47249984741211
12.694999694824219
13.175000190734863
13.262499809265137
13.399999618530273
13.300000190734863
13.385000228881836
13.654999732971191
13.27750015258789
13.319999694824219
13.317500114440918
13.104999542236328
13.295000076293945
13.317500114440918
13.632499694824219
13.59749984741211
13.667499542236328
13.857500076293945
13.125
12.767499923706055
12.085000038146973
11.770000457763672
11.697500228881836
12.202500343322754
12.612500190734863
13.132499694824219
13.272500038146973
13.130000114440918
13.332500457763672
13.385000228881836
13.367500305175781
13.132499694824219
12.829999923706055
12.392499923706055
12.532500267028809
12.3725004196167
12.704999923706055
13.342499732971191
13.017499923706055
13.352499961853027
13.0600004196167
12.675000190734863
13.345000267028809
13.27750015258789
13.272500038146973
12.850000381469727
11.930000305175781
12.1274995803833
12.112500190734863
12.390000343322754
12.887499809265137
12.432499885559082
12.539999961853027
11.787500381469727
11.6274995803833
11.579999923706055
12.114999771118164
12.489999771118164
12.952500343322754
12.75
13.375
12.682499885559082
12.7524995803833
13.494999885559082
13.475000381469727
13.295000076293945
13.585000038146973
13.694999694824219
13.484999656677246
13.407500267028809
13.782500267028809
13.305000305175781
13.354999542236328
13.414999961853027
13.112500190734863
13.649999618530273
14.164999961853027
13.635000228881836
13.842499732971191
13.617500305175781
12.852499961853027
13.052499771118164
13.40250015258789
13.757499694824219
14.102499961853027
14.069999694824219
13.77750015258789
13.897500038146973
13.78499984741211
14.28499984741211
14.572500228881836
14.232500076293945
14.399999618530273
14.265000343322754
14.112500190734863
14.407500267028809
15.317500114440918
15.357500076293945
15.507499694824219
15.4350004196167
15.287500381469727
14.800000190734863
14.194999694824219
13.9399995803833
13.772500038146973
13.727499961853027
14.162500381469727
14.75
15.842499732971191
16.332500457763672
15.662500381469727
15.677499771118164
14.982500076293945
14.670000076293945
14.930000305175781
15.65250015258789
15.770000457763672
16.517499923706055
16.489999771118164
16.03499984741211
15.829999923706055
16.15999984741211
15.414999961853027
15.444999694824219
15.6274995803833
15.84000015258789
15.192500114440918
14.607500076293945
14.229999542236328
13.550000190734863
13.34749984741211
13.017499923706055
13.694999694824219
13.697500228881836
14.262499809265137
15.100000381469727
15.322500228881836
15.442500114440918
14.96500015258789
15.032500267028809
14.827500343322754
14.697500228881836
14.577500343322754
14.614999771118164
14.3725004196167
14.5649995803833
14.432499885559082
14.430000305175781
15.015000343322754
15.292499542236328
14.792499542236328
14.585000038146973
15.170000076293945
15.0
15.667499542236328
15.359999656677246
15.492500305175781
15.260000228881836
15.462499618530273
15.5649995803833
15.614999771118164
15.77750015258789
15.952500343322754
15.925000190734863
15.477499961853027
15.637499809265137
15.52750015258789
15.032500267028809
15.772500038146973
16.299999237060547
16.352500915527344
16.40999984741211
16.602500915527344
16.350000381469727
16.280000686645508
16.4375
16.387500762939453
16.895000457763672
16.540000915527344
15.927499771118164
15.857500076293945
15.987500190734863
16.252500534057617
16.264999389648438
16.239999771118164
16.447500228881836
16.485000610351562
16.362499237060547
15.930000305175781
15.4399995803833
14.869999885559082
14.914999961853027
15.537500381469727
15.489999771118164
14.987500190734863
15.09000015258789
14.899999618530273
15.09749984741211
15.3774995803833
15.992500305175781
16.145000457763672
16.1825008392334
15.9350004196167
15.774999618530273
15.477499961853027
15.71500015258789
15.619999885559082
15.807499885559082
16.309999465942383
15.952500343322754
16.207500457763672
16.337499618530273
16.767499923706055
16.299999237060547
16.107500076293945
16.13249969482422
15.954999923706055
16.037500381469727
16.227500915527344
16.0625
15.375
16.0
15.182499885559082
15.604999542236328
15.90250015258789
16.65999984741211
16.790000915527344
16.735000610351562
16.137500762939453
15.53499984741211
15.5625
15.167499542236328
14.672499656677246
14.507499694824219
15.03499984741211
15.417499542236328
15.289999961853027
16.405000686645508
16.475000381469727
15.869999885559082
16.112499237060547
16.59749984741211
16.790000915527344
16.559999465942383
16.625
16.114999771118164
15.237500190734863
15.067500114440918
15.09749984741211
15.085000038146973
14.727499961853027
15.079999923706055
15.2524995803833
15.104999542236328
15.604999542236328
15.890000343322754
16.200000762939453
15.772500038146973
15.760000228881836
15.647500038146973
15.795000076293945
15.899999618530273
15.795000076293945
16.19499969482422
15.710000038146973
15.640000343322754
15.412500381469727
15.5
15.837499618530273
16.114999771118164
16.0625
16.272499084472656
16.46500015258789
15.982500076293945
15.819999694824219
15.819999694824219
15.842499732971191
16.219999313354492
16.52750015258789
16.735000610351562
16.857500076293945
16.559999465942383
16.127500534057617
15.707500457763672
14.852499961853027
14.765000343322754
14.975000381469727
15.22249984741211
15.537500381469727
16.315000534057617
16.290000915527344
16.517499923706055
16.6825008392334
16.735000610351562
16.665000915527344
16.46500015258789
16.55500030517578
16.772499084472656
16.772499084472656
17.627500534057617
17.915000915527344
17.112499237060547
16.5625
16.017499923706055
15.267499923706055
14.989999771118164
15.337499618530273
15.887499809265137
15.774999618530273
16.350000381469727
15.989999771118164
15.970000267028809
15.8125
16.4950008392334
16.387500762939453
16.674999237060547
16.927499771118164
16.545000076293945
15.899999618530273
16.502500534057617
16.440000534057617
15.979999542236328
16.50749969482422
16.017499923706055
15.772500038146973
15.592499732971191
15.9399995803833
16.082500457763672
15.475000381469727
15.182499885559082
15.569999694824219
14.9375
15.255000114440918
15.367500305175781
15.324999809265137
15.512499809265137
14.9399995803833
15.967499732971191
16.350000381469727
16.344999313354492
16.532499313354492
16.842500686645508
16.452499389648438
16.1200008392334
16.03499984741211
15.957500457763672
16.184999465942383
16.237499237060547
16.15250015258789
16.787500381469727
16.84749984741211
16.895000457763672
16.86750030517578
16.885000228881836
16.547500610351562
16.735000610351562
16.475000381469727
16.892499923706055
17.112499237060547
17.020000457763672
17.13249969482422
17.537500381469727
16.872499465942383
16.9325008392334
16.6825008392334
16.2549991607666
16.84000015258789
17.27750015258789
17.637500762939453
18.024999618530273
17.600000381469727
17.040000915527344
16.842500686645508
16.102500915527344
16.06999969482422
15.869999885559082
16.139999389648438
16.385000228881836
16.5575008392334
16.68000030517578
16.457500457763672
16.584999084472656
17.020000457763672
16.44499969482422
16.360000610351562
15.7524995803833
15.119999885559082
15.324999809265137
15.8100004196167
16.309999465942383
16.1825008392334
16.592500686645508
16.762500762939453
16.417499542236328
16.112499237060547
15.712499618530273
15.72249984741211
15.984999656677246
16.065000534057617
16.655000686645508
16.877500534057617
16.264999389648438
16.122499465942383
15.957500457763672
15.694999694824219
15.572500228881836
15.212499618530273
15.399999618530273
16.014999389648438
16.542499542236328
17.290000915527344
17.427499771118164
16.9950008392334
16.982500076293945
16.774999618530273
16.6825008392334
16.4375
16.517499923706055
15.802499771118164
16.197500228881836
15.987500190734863
15.880000114440918
16.21500015258789
16.424999237060547
16.399999618530273
16.47249984741211
16.00749969482422
15.537500381469727
15.75
15.864999771118164
15.975000381469727
16.860000610351562
17.104999542236328
16.072500228881836
16.512500762939453
16.489999771118164
16.38249969482422
16.587499618530273
17.3174991607666
17.3075008392334
17.147499084472656
16.959999084472656
16.940000534057617
16.767499923706055
16.2549991607666
16.0674991607666
16.22249984741211
16.665000915527344
17.170000076293945
17.260000228881836
17.967500686645508
17.427499771118164
17.350000381469727
16.834999084472656
16.72249984741211
16.774999618530273
17.0
16.887500762939453
17.037500381469727
17.139999389648438
16.65250015258789
16.299999237060547
16.260000228881836
16.579999923706055
16.197500228881836
15.867500305175781
16.272499084472656
16.299999237060547
16.602500915527344
16.872499465942383
17.549999237060547
17.712499618530273
17.834999084472656
18.497499465942383
18.387500762939453
17.732500076293945
16.899999618530273
16.989999771118164
16.582500457763672
16.0674991607666
16.74250030517578
16.454999923706055
16.532499313354492
16.5
16.642499923706055
16.924999237060547
17.427499771118164
17.94499969482422
17.850000381469727
18.052499771118164
18.072500228881836
17.427499771118164
16.78499984741211
16.9950008392334
17.190000534057617
17.162500381469727
17.267499923706055
17.290000915527344
16.987499237060547
16.99250030517578
17.162500381469727
17.3700008392334
17.837499618530273
17.739999771118164
17.18000030517578
17.072500228881836
16.68000030517578
16.399999618530273
16.815000534057617
16.917499542236328
17.142499923706055
16.844999313354492
16.727500915527344
16.71500015258789
16.5674991607666
16.479999542236328
16.622499465942383
16.552499771118164
17.352500915527344
17.065000534057617
16.927499771118164
16.524999618530273
16.18000030517578
15.800000190734863
15.979999542236328
17.065000534057617
17.65999984741211
17.584999084472656
