EpRewMean
0.4950000047683716
0.6499999761581421
0.7149999737739563
0.7799999713897705
0.8100000023841858
0.8650000095367432
0.875
0.9950000047683716
0.8949999809265137
0.9750000238418579
1.1100000143051147
1.4249999523162842
1.225000023841858
1.2649999856948853
1.2000000476837158
1.2699999809265137
1.225000023841858
1.3450000286102295
1.25
1.1649999618530273
1.4149999618530273
1.340000033378601
1.3049999475479126
1.2649999856948853
1.2200000286102295
1.4249999523162842
1.409999966621399
1.4900000095367432
1.2649999856948853
1.440000057220459
1.4450000524520874
1.4149999618530273
1.559999942779541
1.4950000047683716
1.465000033378601
1.6200000047683716
1.534999966621399
1.5549999475479126
1.524999976158142
1.6649999618530273
1.4149999618530273
1.5700000524520874
1.3300000429153442
1.4450000524520874
1.409999966621399
1.4850000143051147
1.4500000476837158
1.6649999618530273
1.6349999904632568
1.5149999856948853
1.559999942779541
1.5549999475479126
1.3700000047683716
1.350000023841858
1.3550000190734863
1.5950000286102295
1.3450000286102295
1.434999942779541
1.6200000047683716
1.7200000286102295
1.6150000095367432
1.7699999809265137
1.399999976158142
1.600000023841858
1.590000033378601
1.6649999618530273
1.475000023841858
1.559999942779541
1.559999942779541
1.5750000476837158
1.5
1.4450000524520874
1.3600000143051147
1.4800000190734863
1.7350000143051147
1.5449999570846558
1.3849999904632568
1.399999976158142
1.4700000286102295
1.3200000524520874
1.5299999713897705
1.5700000524520874
1.5
1.524999976158142
1.340000033378601
1.6299999952316284
1.5950000286102295
1.6100000143051147
1.5700000524520874
1.4550000429153442
1.465000033378601
1.4800000190734863
1.4600000381469727
1.3949999809265137
1.4900000095367432
1.4199999570846558
1.6549999713897705
1.4149999618530273
1.5950000286102295
1.5700000524520874
1.5399999618530273
1.534999966621399
1.625
1.4700000286102295
1.3700000047683716
1.4199999570846558
1.5850000381469727
1.559999942779541
1.350000023841858
1.5049999952316284
1.409999966621399
1.284999966621399
1.4900000095367432
1.4850000143051147
1.5700000524520874
1.5449999570846558
1.4950000047683716
1.5299999713897705
1.5049999952316284
1.4850000143051147
1.2799999713897705
1.340000033378601
1.4800000190734863
1.3849999904632568
1.590000033378601
1.4850000143051147
1.309999942779541
1.375
1.3350000381469727
1.4850000143051147
1.3650000095367432
1.5299999713897705
1.4500000476837158
1.3650000095367432
1.6150000095367432
1.4600000381469727
1.440000057220459
1.440000057220459
1.4049999713897705
1.524999976158142
1.5549999475479126
1.409999966621399
1.5549999475479126
1.5549999475479126
1.559999942779541
1.4800000190734863
1.524999976158142
1.5149999856948853
1.399999976158142
1.5850000381469727
1.4700000286102295
1.5549999475479126
1.4550000429153442
1.4600000381469727
1.399999976158142
1.4249999523162842
1.4199999570846558
1.5800000429153442
1.465000033378601
1.5299999713897705
1.6050000190734863
1.625
1.3049999475479126
1.2799999713897705
1.409999966621399
1.6699999570846558
1.1749999523162842
1.5299999713897705
1.5449999570846558
1.2649999856948853
1.6349999904632568
1.434999942779541
1.4850000143051147
1.5299999713897705
1.465000033378601
1.3600000143051147
1.5449999570846558
1.6399999856948853
1.5549999475479126
1.5700000524520874
1.3450000286102295
1.375
1.5149999856948853
1.6150000095367432
1.3799999952316284
1.590000033378601
1.4700000286102295
1.409999966621399
1.5299999713897705
1.4700000286102295
1.6150000095367432
1.5800000429153442
1.5850000381469727
1.5750000476837158
1.4800000190734863
1.5449999570846558
1.8600000143051147
1.8849999904632568
1.8049999475479126
1.9249999523162842
1.9850000143051147
1.7000000476837158
1.7699999809265137
1.815000057220459
1.7999999523162842
1.7799999713897705
1.7599999904632568
1.7100000381469727
1.9700000286102295
2.2200000286102295
2.075000047683716
1.7649999856948853
1.8799999952316284
2.059999942779541
2.049999952316284
2.055000066757202
1.940000057220459
1.9450000524520874
2.015000104904175
2.015000104904175
2.015000104904175
2.0999999046325684
2.200000047683716
2.059999942779541
1.9550000429153442
2.1050000190734863
2.184999942779541
2.2149999141693115
2.075000047683716
2.065000057220459
2.259999990463257
2.2899999618530273
2.319999933242798
2.3299999237060547
2.3350000381469727
2.190000057220459
2.0950000286102295
2.069999933242798
2.109999895095825
2.319999933242798
2.505000114440918
2.440000057220459
2.3949999809265137
2.565000057220459
2.484999895095825
2.5950000286102295
2.634999990463257
2.4800000190734863
2.5250000953674316
2.625
2.5299999713897705
2.625
2.7950000762939453
2.640000104904175
2.7100000381469727
2.5799999237060547
2.555000066757202
2.7750000953674316
2.765000104904175
2.674999952316284
2.700000047683716
2.7149999141693115
2.634999990463257
2.6649999618530273
2.755000114440918
2.815000057220459
2.7149999141693115
2.7049999237060547
2.8299999237060547
3.174999952316284
3.069999933242798
3.0
3.1549999713897705
2.994999885559082
3.240000009536743
3.2950000762939453
3.319999933242798
3.309999942779541
3.1500000953674316
3.174999952316284
3.25
3.609999895095825
3.4749999046325684
3.359999895095825
3.450000047683716
3.4700000286102295
3.1600000858306885
2.9100000858306885
3.3350000381469727
3.075000047683716
3.2850000858306885
3.25
3.4149999618530273
3.3550000190734863
3.6050000190734863
3.575000047683716
3.755000114440918
3.8350000381469727
3.609999895095825
3.625
3.5299999713897705
3.940000057220459
4.070000171661377
3.9749999046325684
3.8550000190734863
3.819999933242798
4.034999847412109
3.884999990463257
3.8399999141693115
3.7149999141693115
3.944999933242798
4.21999979019165
4.400000095367432
4.429999828338623
4.284999847412109
4.25
4.065000057220459
3.924999952316284
3.990000009536743
4.175000190734863
4.239999771118164
4.260000228881836
4.195000171661377
4.215000152587891
4.119999885559082
4.114999771118164
4.025000095367432
4.295000076293945
4.519999980926514
4.340000152587891
4.309999942779541
4.369999885559082
4.429999828338623
4.119999885559082
3.930000066757202
3.884999990463257
3.880000114440918
4.110000133514404
4.239999771118164
4.324999809265137
4.340000152587891
4.440000057220459
4.619999885559082
4.605000019073486
4.519999980926514
4.760000228881836
4.610000133514404
4.804999828338623
4.835000038146973
4.764999866485596
4.929999828338623
4.78000020980835
4.650000095367432
4.690000057220459
4.784999847412109
4.789999961853027
4.659999847412109
4.585000038146973
4.434999942779541
4.704999923706055
4.644999980926514
4.804999828338623
4.875
4.664999961853027
4.574999809265137
4.599999904632568
4.84499979019165
4.885000228881836
4.699999809265137
4.675000190734863
4.534999847412109
4.704999923706055
4.769999980926514
4.724999904632568
4.855000019073486
4.800000190734863
4.820000171661377
4.789999961853027
4.59499979019165
4.614999771118164
4.755000114440918
4.639999866485596
4.764999866485596
4.65500020980835
4.795000076293945
4.635000228881836
4.539999961853027
4.570000171661377
4.659999847412109
4.985000133514404
5.369999885559082
5.364999771118164
5.340000152587891
5.324999809265137
5.320000171661377
5.445000171661377
5.309999942779541
5.34499979019165
5.119999885559082
5.025000095367432
5.204999923706055
5.284999847412109
5.460000038146973
4.985000133514404
5.070000171661377
5.215000152587891
5.28000020980835
5.480000019073486
5.244999885559082
5.460000038146973
5.239999771118164
5.875
6.360000133514404
6.440000057220459
6.260000228881836
5.71999979019165
5.585000038146973
5.539999961853027
5.864999771118164
6.119999885559082
5.960000038146973
5.84499979019165
5.985000133514404
6.630000114440918
6.795000076293945
7.019999980926514
6.84499979019165
6.599999904632568
6.425000190734863
6.474999904632568
7.050000190734863
7.235000133514404
6.960000038146973
6.980000019073486
6.804999828338623
6.519999980926514
6.769999980926514
6.715000152587891
6.784999847412109
6.715000152587891
7.175000190734863
7.159999847412109
7.085000038146973
7.034999847412109
6.90500020980835
6.5
6.579999923706055
6.760000228881836
6.675000190734863
6.710000038146973
7.400000095367432
7.304999828338623
6.75
7.03000020980835
7.340000152587891
7.324999809265137
7.894999980926514
8.010000228881836
8.045000076293945
7.755000114440918
7.289999961853027
7.619999885559082
7.539999961853027
7.71999979019165
7.190000057220459
7.309999942779541
7.309999942779541
7.440000057220459
7.565000057220459
7.724999904632568
7.75
7.775000095367432
7.639999866485596
7.869999885559082
8.180000305175781
7.675000190734863
7.34499979019165
7.534999847412109
7.695000171661377
7.65500020980835
7.715000152587891
7.755000114440918
7.494999885559082
6.894999980926514
7.335000038146973
7.559999942779541
7.769999980926514
7.434999942779541
7.215000152587891
7.574999809265137
8.0649995803833
8.210000038146973
7.96999979019165
7.639999866485596
7.90500020980835
7.985000133514404
8.109999656677246
7.920000076293945
8.100000381469727
7.820000171661377
8.145000457763672
7.980000019073486
8.234999656677246
7.775000095367432
8.149999618530273
8.260000228881836
8.430000305175781
8.425000190734863
8.649999618530273
8.845000267028809
8.395000457763672
7.760000228881836
7.730000019073486
7.795000076293945
8.0600004196167
8.265000343322754
7.954999923706055
7.800000190734863
7.889999866485596
8.149999618530273
7.679999828338623
7.210000038146973
7.389999866485596
7.5
7.519999980926514
7.675000190734863
7.519999980926514
7.474999904632568
7.614999771118164
8.449999809265137
8.4350004196167
8.430000305175781
7.804999828338623
8.050000190734863
7.914999961853027
8.130000114440918
8.170000076293945
7.644999980926514
7.789999961853027
7.824999809265137
8.130000114440918
8.515000343322754
8.710000038146973
8.074999809265137
7.570000171661377
7.434999942779541
7.099999904632568
7.199999809265137
7.364999771118164
7.829999923706055
7.474999904632568
7.96999979019165
7.989999771118164
7.465000152587891
7.614999771118164
7.409999847412109
8.024999618530273
7.880000114440918
8.039999961853027
7.53000020980835
7.539999961853027
7.670000076293945
7.559999942779541
7.59499979019165
8.03499984741211
8.324999809265137
8.635000228881836
8.079999923706055
8.140000343322754
8.335000038146973
8.380000114440918
8.574999809265137
8.354999542236328
8.380000114440918
8.604999542236328
8.824999809265137
8.520000457763672
8.680000305175781
8.505000114440918
8.914999961853027
9.194999694824219
9.255000114440918
8.805000305175781
8.404999732971191
8.350000381469727
8.140000343322754
7.885000228881836
7.96999979019165
7.994999885559082
8.279999732971191
8.770000457763672
8.975000381469727
8.970000267028809
8.649999618530273
8.489999771118164
9.130000114440918
9.59000015258789
9.345000267028809
9.1899995803833
9.210000038146973
8.949999809265137
8.449999809265137
8.494999885559082
9.039999961853027
9.194999694824219
8.9350004196167
8.765000343322754
9.015000343322754
8.96500015258789
9.03499984741211
8.875
8.845000267028809
8.994999885559082
7.875
8.024999618530273
8.194999694824219
8.694999694824219
8.425000190734863
8.515000343322754
8.6850004196167
8.854999542236328
9.039999961853027
8.994999885559082
9.260000228881836
9.319999694824219
8.904999732971191
8.920000076293945
9.020000457763672
9.114999771118164
9.260000228881836
9.279999732971191
8.9399995803833
8.994999885559082
9.3100004196167
9.414999961853027
9.28499984741211
9.460000038146973
9.494999885559082
9.59000015258789
9.0649995803833
8.850000381469727
8.8100004196167
8.895000457763672
9.119999885559082
8.8100004196167
8.824999809265137
8.755000114440918
9.28499984741211
9.170000076293945
9.069999694824219
8.649999618530273
9.095000267028809
9.220000267028809
9.414999961853027
9.604999542236328
9.34000015258789
9.805000305175781
9.720000267028809
9.739999771118164
8.9399995803833
9.069999694824219
9.770000457763672
10.0600004196167
9.78499984741211
9.59000015258789
9.930000305175781
9.729999542236328
9.649999618530273
9.289999961853027
9.619999885559082
9.725000381469727
10.239999771118164
10.020000457763672
9.229999542236328
9.104999542236328
9.0
9.220000267028809
9.170000076293945
9.324999809265137
9.104999542236328
9.489999771118164
9.444999694824219
9.770000457763672
9.359999656677246
9.539999961853027
9.515000343322754
9.569999694824219
10.170000076293945
9.944999694824219
9.619999885559082
9.369999885559082
9.404999732971191
9.385000228881836
9.430000305175781
9.329999923706055
9.1850004196167
9.574999809265137
10.265000343322754
10.635000228881836
10.875
10.199999809265137
10.265000343322754
10.274999618530273
10.164999961853027
9.694999694824219
9.779999732971191
9.875
9.90999984741211
10.045000076293945
9.96500015258789
10.199999809265137
9.970000267028809
10.020000457763672
10.0
10.164999961853027
9.954999923706055
9.385000228881836
9.795000076293945
10.095000267028809
10.145000457763672
9.270000457763672
8.9399995803833
9.199999809265137
9.289999961853027
9.850000381469727
9.720000267028809
9.25
9.100000381469727
9.875
9.960000038146973
9.569999694824219
9.335000038146973
9.234999656677246
9.614999771118164
9.755000114440918
10.239999771118164
10.25
9.739999771118164
9.210000038146973
9.645000457763672
9.944999694824219
10.425000190734863
10.369999885559082
10.234999656677246
10.234999656677246
10.680000305175781
10.954999923706055
10.920000076293945
10.600000381469727
10.454999923706055
10.53499984741211
10.0600004196167
10.199999809265137
9.774999618530273
10.28499984741211
10.055000305175781
10.1850004196167
10.364999771118164
10.789999961853027
10.734999656677246
10.6850004196167
10.704999923706055
10.569999694824219
10.479999542236328
10.845000267028809
10.694999694824219
10.930000305175781
11.154999732971191
10.345000267028809
10.074999809265137
10.375
10.8149995803833
11.229999542236328
10.899999618530273
10.53499984741211
10.029999732971191
9.914999961853027
10.005000114440918
10.414999961853027
10.354999542236328
10.420000076293945
10.3100004196167
10.270000457763672
10.449999809265137
10.574999809265137
10.645000457763672
11.09000015258789
11.289999961853027
10.914999961853027
10.34000015258789
9.944999694824219
10.020000457763672
10.579999923706055
10.430000305175781
10.53499984741211
10.3100004196167
10.449999809265137
10.5649995803833
10.914999961853027
11.694999694824219
11.270000457763672
11.324999809265137
10.225000381469727
10.40999984741211
10.015000343322754
10.170000076293945
10.510000228881836
10.760000228881836
10.789999961853027
10.850000381469727
10.635000228881836
10.645000457763672
10.619999885559082
10.824999809265137
10.8149995803833
10.484999656677246
10.404999732971191
9.90999984741211
10.444999694824219
10.53499984741211
10.914999961853027
10.895000457763672
10.770000457763672
10.550000190734863
10.364999771118164
10.5649995803833
10.6899995803833
10.375
10.010000228881836
10.1899995803833
10.6850004196167
11.380000114440918
11.03499984741211
10.484999656677246
10.704999923706055
11.09000015258789
10.920000076293945
10.420000076293945
10.225000381469727
9.984999656677246
9.725000381469727
9.770000457763672
10.260000228881836
10.545000076293945
10.305000305175781
10.354999542236328
10.9350004196167
11.255000114440918
11.100000381469727
10.755000114440918
10.739999771118164
10.869999885559082
10.289999961853027
10.180000305175781
10.295000076293945
10.640000343322754
10.425000190734863
10.234999656677246
10.40999984741211
10.635000228881836
10.6850004196167
10.795000076293945
10.864999771118164
10.795000076293945
10.6899995803833
10.555000305175781
10.994999885559082
10.824999809265137
10.885000228881836
10.970000267028809
10.664999961853027
10.6899995803833
10.40999984741211
10.545000076293945
10.1899995803833
10.46500015258789
10.430000305175781
10.59000015258789
10.864999771118164
10.984999656677246
10.6899995803833
10.375
10.489999771118164
10.789999961853027
10.960000038146973
10.5649995803833
10.654999732971191
10.5600004196167
10.654999732971191
10.140000343322754
9.829999923706055
10.069999694824219
10.619999885559082
11.149999618530273
11.460000038146973
11.390000343322754
11.555000305175781
11.03499984741211
10.380000114440918
10.755000114440918
10.800000190734863
10.84000015258789
11.149999618530273
11.385000228881836
11.654999732971191
11.550000190734863
11.265000343322754
11.069999694824219
10.984999656677246
10.875
10.944999694824219
10.869999885559082
11.425000190734863
11.255000114440918
11.329999923706055
11.859999656677246
11.5600004196167
11.795000076293945
11.175000190734863
11.21500015258789
11.104999542236328
11.350000381469727
11.895000457763672
11.4399995803833
11.335000038146973
10.53499984741211
10.180000305175781
10.520000457763672
11.095000267028809
11.380000114440918
10.484999656677246
10.835000038146973
10.984999656677246
11.359999656677246
10.805000305175781
10.699999809265137
10.755000114440918
11.4399995803833
12.045000076293945
12.055000305175781
12.020000457763672
11.944999694824219
11.555000305175781
11.079999923706055
10.774999618530273
11.274999618530273
11.645000457763672
11.944999694824219
11.930000305175781
12.069999694824219
11.970000267028809
11.795000076293945
11.329999923706055
11.765000343322754
11.819999694824219
11.460000038146973
11.100000381469727
10.994999885559082
11.234999656677246
11.100000381469727
11.600000381469727
11.430000305175781
11.795000076293945
11.8149995803833
11.295000076293945
11.364999771118164
11.0
11.074999809265137
11.515000343322754
11.53499984741211
10.880000114440918
10.800000190734863
10.739999771118164
11.055000305175781
10.975000381469727
11.329999923706055
11.345000267028809
11.210000038146973
11.204999923706055
10.835000038146973
11.045000076293945
11.15999984741211
11.140000343322754
11.095000267028809
11.220000267028809
11.420000076293945
11.574999809265137
11.364999771118164
11.524999618530273
11.46500015258789
11.015000343322754
11.109999656677246
11.204999923706055
11.46500015258789
11.010000228881836
11.029999732971191
10.645000457763672
10.875
10.699999809265137
10.270000457763672
10.425000190734863
10.520000457763672
11.069999694824219
11.175000190734863
10.994999885559082
10.680000305175781
10.479999542236328
10.4350004196167
10.295000076293945
10.470000267028809
10.510000228881836
10.880000114440918
10.319999694824219
10.864999771118164
10.555000305175781
10.954999923706055
11.005000114440918
11.484999656677246
11.819999694824219
11.170000076293945
10.614999771118164
10.255000114440918
10.890000343322754
11.295000076293945
11.614999771118164
11.09000015258789
10.550000190734863
10.345000267028809
10.645000457763672
11.239999771118164
11.03499984741211
10.880000114440918
10.5
10.244999885559082
10.239999771118164
11.104999542236328
11.100000381469727
11.505000114440918
10.989999771118164
11.085000038146973
11.104999542236328
11.239999771118164
11.204999923706055
11.21500015258789
11.229999542236328
11.020000457763672
11.140000343322754
10.765000343322754
10.6899995803833
10.635000228881836
10.854999542236328
11.09000015258789
11.125
10.970000267028809
10.760000228881836
10.640000343322754
10.694999694824219
10.369999885559082
10.279999732971191
10.220000267028809
10.595000267028809
10.265000343322754
10.625
11.104999542236328
11.109999656677246
11.59000015258789
11.359999656677246
11.46500015258789
11.21500015258789
11.345000267028809
11.399999618530273
11.470000267028809
11.21500015258789
11.680000305175781
12.024999618530273
12.225000381469727
11.989999771118164
11.90999984741211
11.585000038146973
11.444999694824219
11.579999923706055
11.635000228881836
11.614999771118164
11.675000190734863
11.949999809265137
11.75
11.859999656677246
11.479999542236328
11.329999923706055
10.994999885559082
10.854999542236328
11.375
11.385000228881836
11.53499984741211
11.255000114440918
11.329999923706055
11.65999984741211
11.1850004196167
10.640000343322754
10.489999771118164
11.0
11.015000343322754
11.5
11.239999771118164
10.625
11.319999694824219
11.40999984741211
11.529999732971191
10.984999656677246
11.09000015258789
10.494999885559082
10.864999771118164
10.75
11.46500015258789
11.640000343322754
11.194999694824219
10.5
10.645000457763672
10.449999809265137
10.670000076293945
10.859999656677246
11.130000114440918
11.079999923706055
11.010000228881836
10.859999656677246
11.319999694824219
11.4399995803833
11.335000038146973
11.545000076293945
11.479999542236328
11.484999656677246
11.395000457763672
11.095000267028809
11.444999694824219
11.920000076293945
12.350000381469727
12.234999656677246
12.585000038146973
12.204999923706055
12.260000228881836
11.975000381469727
11.954999923706055
11.755000114440918
11.680000305175781
11.960000038146973
12.3149995803833
12.600000381469727
12.529999732971191
12.345000267028809
12.375
12.850000381469727
12.515000343322754
12.324999809265137
11.739999771118164
11.755000114440918
12.015000343322754
11.914999961853027
11.880000114440918
11.744999885559082
12.104999542236328
12.194999694824219
12.199999809265137
12.010000228881836
11.970000267028809
12.039999961853027
12.050000190734863
11.954999923706055
12.274999618530273
12.375
12.574999809265137
12.180000305175781
11.895000457763672
11.765000343322754
11.515000343322754
11.170000076293945
10.854999542236328
10.84000015258789
11.210000038146973
11.960000038146973
12.03499984741211
11.9399995803833
11.65999984741211
11.369999885559082
11.079999923706055
11.199999809265137
11.895000457763672
12.114999771118164
11.979999542236328
11.640000343322754
11.364999771118164
11.779999732971191
11.899999618530273
12.335000038146973
12.3100004196167
12.244999885559082
11.875
11.640000343322754
11.824999809265137
11.579999923706055
11.920000076293945
11.725000381469727
11.614999771118164
11.329999923706055
11.720000267028809
12.15999984741211
12.270000457763672
12.385000228881836
12.265000343322754
12.3149995803833
12.274999618530273
12.274999618530273
11.96500015258789
11.145000457763672
11.585000038146973
11.954999923706055
12.005000114440918
11.305000305175781
11.4399995803833
11.984999656677246
12.444999694824219
12.555000305175781
12.925000190734863
12.449999809265137
11.960000038146973
11.350000381469727
11.819999694824219
11.954999923706055
12.399999618530273
12.404999732971191
12.579999923706055
12.5
11.885000228881836
11.819999694824219
11.9350004196167
12.425000190734863
12.0600004196167
12.03499984741211
11.859999656677246
12.430000305175781
12.270000457763672
11.850000381469727
12.15999984741211
11.805000305175781
12.114999771118164
11.734999656677246
11.770000457763672
11.725000381469727
11.930000305175781
12.279999732971191
12.59000015258789
12.114999771118164
12.055000305175781
11.899999618530273
12.029999732971191
12.069999694824219
11.859999656677246
11.619999885559082
11.890000343322754
12.024999618530273
12.085000038146973
11.920000076293945
11.354999542236328
11.8149995803833
12.015000343322754
12.609999656677246
12.279999732971191
12.3149995803833
12.125
12.225000381469727
11.960000038146973
11.579999923706055
11.84000015258789
11.805000305175781
12.010000228881836
11.9350004196167
11.795000076293945
11.420000076293945
11.170000076293945
11.380000114440918
11.78499984741211
11.774999618530273
11.279999732971191
10.954999923706055
10.8149995803833
11.494999885559082
11.619999885559082
11.454999923706055
11.21500015258789
11.305000305175781
11.319999694824219
11.0649995803833
10.890000343322754
10.420000076293945
10.845000267028809
11.425000190734863
11.795000076293945
11.704999923706055
11.78499984741211
11.645000457763672
11.670000076293945
11.260000228881836
11.020000457763672
11.229999542236328
11.260000228881836
11.295000076293945
11.095000267028809
11.779999732971191
11.875
11.210000038146973
11.234999656677246
11.364999771118164
11.694999694824219
11.774999618530273
11.875
11.739999771118164
11.744999885559082
12.104999542236328
12.164999961853027
12.239999771118164
12.005000114440918
12.420000076293945
12.194999694824219
11.899999618530273
11.760000228881836
11.779999732971191
11.774999618530273
12.130000114440918
12.295000076293945
11.895000457763672
11.604999542236328
11.399999618530273
11.574999809265137
11.645000457763672
11.885000228881836
12.449999809265137
12.520000457763672
12.850000381469727
12.84000015258789
12.864999771118164
12.789999961853027
12.899999618530273
12.949999809265137
12.595000267028809
12.359999656677246
12.319999694824219
12.21500015258789
12.295000076293945
12.4350004196167
12.704999923706055
12.864999771118164
13.005000114440918
12.3149995803833
12.609999656677246
12.5649995803833
12.079999923706055
12.369999885559082
11.914999961853027
12.425000190734863
12.3149995803833
12.279999732971191
12.354999542236328
12.345000267028809
12.8149995803833
13.170000076293945
13.234999656677246
13.085000038146973
12.720000267028809
12.9350004196167
12.71500015258789
12.505000114440918
12.420000076293945
12.5
13.274999618530273
13.229999542236328
13.404999732971191
12.460000038146973
12.760000228881836
12.5649995803833
12.779999732971191
12.119999885559082
12.300000190734863
12.6899995803833
13.135000228881836
12.899999618530273
12.305000305175781
12.125
12.234999656677246
12.545000076293945
12.9350004196167
12.949999809265137
13.114999771118164
13.114999771118164
12.800000190734863
11.979999542236328
12.0
12.260000228881836
12.710000038146973
12.619999885559082
12.694999694824219
12.335000038146973
12.3100004196167
12.699999809265137
12.984999656677246
13.055000305175781
12.989999771118164
12.555000305175781
12.255000114440918
12.479999542236328
12.899999618530273
13.069999694824219
12.789999961853027
12.6899995803833
11.890000343322754
11.319999694824219
11.8100004196167
11.9399995803833
12.8149995803833
12.270000457763672
12.324999809265137
11.9399995803833
12.614999771118164
12.739999771118164
12.539999961853027
12.140000343322754
11.75
11.569999694824219
12.100000381469727
12.5
12.664999961853027
12.649999618530273
13.010000228881836
12.84000015258789
12.795000076293945
12.789999961853027
12.3100004196167
12.100000381469727
11.4350004196167
11.675000190734863
11.914999961853027
12.350000381469727
12.5600004196167
12.930000305175781
12.21500015258789
12.229999542236328
12.395000457763672
13.074999809265137
12.779999732971191
12.930000305175781
13.244999885559082
13.755000114440918
13.635000228881836
12.895000457763672
12.199999809265137
11.920000076293945
12.609999656677246
12.645000457763672
12.479999542236328
12.625
12.529999732971191
12.75
12.020000457763672
11.739999771118164
11.635000228881836
12.25
12.694999694824219
12.699999809265137
12.9350004196167
12.40999984741211
12.904999732971191
12.755000114440918
12.984999656677246
12.835000038146973
12.755000114440918
12.625
12.5600004196167
12.84000015258789
13.34000015258789
13.194999694824219
13.005000114440918
12.720000267028809
12.4350004196167
12.4350004196167
12.869999885559082
12.545000076293945
12.375
12.579999923706055
13.574999809265137
12.845000267028809
12.930000305175781
12.210000038146973
12.694999694824219
12.104999542236328
12.15999984741211
12.505000114440918
12.449999809265137
12.489999771118164
11.824999809265137
12.46500015258789
12.494999885559082
12.949999809265137
12.460000038146973
13.0649995803833
13.244999885559082
13.03499984741211
12.520000457763672
12.3149995803833
12.625
12.640000343322754
12.6899995803833
12.244999885559082
11.864999771118164
11.869999885559082
12.029999732971191
12.420000076293945
11.75
12.255000114440918
12.734999656677246
12.694999694824219
12.859999656677246
12.930000305175781
13.055000305175781
12.835000038146973
12.135000228881836
12.125
12.005000114440918
12.364999771118164
