EpRewMean
1.2758620977401733
1.2429577112197876
1.6279069185256958
1.462499976158142
1.277500033378601
1.1399999856948853
1.2699999809265137
1.059999942779541
1.2324999570846558
1.337499976158142
1.3600000143051147
1.4299999475479126
1.6924999952316284
1.6475000381469727
1.3424999713897705
1.1950000524520874
1.3025000095367432
1.3300000429153442
1.465000033378601
1.2450000047683716
0.9900000095367432
1.059999942779541
1.2200000286102295
1.4574999809265137
1.372499942779541
1.4574999809265137
1.3849999904632568
1.5225000381469727
1.4900000095367432
1.4450000524520874
1.527500033378601
1.649999976158142
1.5824999809265137
1.4075000286102295
1.6100000143051147
1.372499942779541
1.25
1.1950000524520874
1.2549999952316284
1.287500023841858
1.412500023841858
1.4375
1.3324999809265137
0.9975000023841858
1.0625
1.2424999475479126
1.6050000190734863
1.4249999523162842
1.4774999618530273
1.777500033378601
1.9800000190734863
1.997499942779541
2.0899999141693115
2.125
1.8674999475479126
1.7450000047683716
1.9249999523162842
2.0299999713897705
1.9225000143051147
1.7699999809265137
1.712499976158142
1.6775000095367432
1.6375000476837158
1.7999999523162842
1.7074999809265137
1.7699999809265137
1.9049999713897705
1.997499942779541
2.0250000953674316
2.0425000190734863
2.1075000762939453
2.0
1.9299999475479126
2.119999885559082
1.8300000429153442
1.7424999475479126
2.234999895095825
2.2825000286102295
2.2074999809265137
2.307499885559082
2.6675000190734863
2.7874999046325684
2.494999885559082
2.0950000286102295
2.197499990463257
2.1700000762939453
2.237499952316284
2.569999933242798
2.677500009536743
2.6024999618530273
2.4375
2.5
2.2799999713897705
2.1624999046325684
2.180000066757202
2.4625000953674316
2.5824999809265137
2.5999999046325684
2.577500104904175
2.862499952316284
2.9600000381469727
2.684999942779541
2.567500114440918
2.737499952316284
2.8375000953674316
3.0625
2.9100000858306885
2.575000047683716
2.744999885559082
2.5374999046325684
2.684999942779541
2.7874999046325684
2.817500114440918
2.805000066757202
2.737499952316284
3.0174999237060547
3.319999933242798
3.255000114440918
2.9375
3.2850000858306885
3.427500009536743
3.242500066757202
3.637500047683716
3.367500066757202
3.2725000381469727
3.309999942779541
3.309999942779541
3.494999885559082
3.1024999618530273
3.640000104904175
4.102499961853027
3.6549999713897705
3.5924999713897705
4.117499828338623
4.349999904632568
4.295000076293945
3.942500114440918
4.235000133514404
4.037499904632568
3.7049999237060547
3.559999942779541
3.4800000190734863
3.6649999618530273
3.805000066757202
4.207499980926514
4.072500228881836
3.884999990463257
3.7725000381469727
3.744999885559082
4.15749979019165
4.457499980926514
4.349999904632568
3.8375000953674316
4.137499809265137
3.922499895095825
3.947499990463257
4.204999923706055
4.349999904632568
4.15749979019165
4.402500152587891
4.367499828338623
4.09250020980835
3.9749999046325684
4.385000228881836
5.057499885559082
4.804999828338623
4.960000038146973
5.207499980926514
4.985000133514404
5.09250020980835
4.559999942779541
4.954999923706055
5.019999980926514
4.557499885559082
5.03249979019165
4.989999771118164
4.755000114440918
4.567500114440918
4.960000038146973
5.162499904632568
4.922500133514404
5.142499923706055
4.579999923706055
4.639999866485596
4.732500076293945
4.822500228881836
4.559999942779541
4.619999885559082
4.552499771118164
4.922500133514404
5.125
4.457499980926514
5.172500133514404
4.897500038146973
5.130000114440918
5.150000095367432
5.137499809265137
5.210000038146973
5.105000019073486
5.079999923706055
5.197500228881836
5.045000076293945
5.534999847412109
5.21999979019165
5.40500020980835
5.977499961853027
6.172500133514404
5.577499866485596
5.547500133514404
5.940000057220459
5.980000019073486
5.960000038146973
5.497499942779541
6.099999904632568
5.760000228881836
5.675000190734863
6.079999923706055
6.152500152587891
5.667500019073486
5.664999961853027
6.017499923706055
6.412499904632568
6.502500057220459
6.09250020980835
5.840000152587891
6.037499904632568
5.672500133514404
6.71750020980835
6.262499809265137
6.510000228881836
6.327499866485596
6.96999979019165
6.647500038146973
6.6875
6.585000038146973
7.027500152587891
6.65749979019165
6.947500228881836
7.065000057220459
6.440000057220459
6.442500114440918
6.65500020980835
6.610000133514404
6.84499979019165
6.559999942779541
6.920000076293945
6.820000171661377
6.875
6.897500038146973
6.78249979019165
7.252500057220459
7.235000133514404
7.292500019073486
6.849999904632568
6.864999771118164
7.03000020980835
7.375
7.052499771118164
7.377500057220459
7.304999828338623
7.267499923706055
7.512499809265137
7.789999961853027
7.340000152587891
7.565000057220459
7.210000038146973
7.357500076293945
7.237500190734863
7.449999809265137
7.662499904632568
7.297500133514404
7.409999847412109
7.364999771118164
7.712500095367432
7.692500114440918
7.539999961853027
7.84499979019165
7.614999771118164
7.642499923706055
7.797500133514404
7.502500057220459
7.65500020980835
7.945000171661377
8.055000305175781
7.737500190734863
7.335000038146973
7.585000038146973
7.862500190734863
8.350000381469727
8.542499542236328
7.697500228881836
7.65749979019165
7.78249979019165
8.109999656677246
8.085000038146973
8.109999656677246
8.0625
7.885000228881836
7.570000171661377
7.337500095367432
8.114999771118164
8.069999694824219
8.032500267028809
8.357500076293945
7.849999904632568
8.147500038146973
8.479999542236328
8.1899995803833
8.295000076293945
8.302499771118164
7.712500095367432
7.929999828338623
8.664999961853027
8.257499694824219
8.1225004196167
8.512499809265137
8.619999885559082
8.492500305175781
8.550000190734863
8.494999885559082
8.524999618530273
8.112500190734863
7.767499923706055
8.067500114440918
7.762499809265137
7.772500038146973
7.525000095367432
8.085000038146973
8.329999923706055
8.067500114440918
8.272500038146973
8.462499618530273
8.702500343322754
8.375
8.567500114440918
8.805000305175781
8.4975004196167
8.147500038146973
7.707499980926514
8.112500190734863
8.404999732971191
8.335000038146973
8.479999542236328
8.537500381469727
8.369999885559082
8.392499923706055
8.917499542236328
8.717499732971191
8.712499618530273
8.704999923706055
8.482500076293945
8.920000076293945
8.592499732971191
8.387499809265137
8.619999885559082
8.6899995803833
8.242500305175781
8.6899995803833
9.255000114440918
9.279999732971191
8.885000228881836
8.6274995803833
8.6875
8.602499961853027
8.4399995803833
8.170000076293945
9.042499542236328
9.0600004196167
8.989999771118164
8.5625
8.675000190734863
9.46500015258789
9.239999771118164
8.947500228881836
8.907500267028809
8.712499618530273
8.875
8.537500381469727
8.475000381469727
8.819999694824219
8.887499809265137
9.15250015258789
9.1274995803833
9.142499923706055
9.317500114440918
9.172499656677246
9.045000076293945
9.204999923706055
9.425000190734863
8.952500343322754
9.352499961853027
9.300000190734863
9.287500381469727
9.067500114440918
9.0024995803833
9.132499694824219
9.147500038146973
9.147500038146973
9.162500381469727
9.260000228881836
9.265000343322754
9.470000267028809
9.762499809265137
9.875
9.609999656677246
9.507499694824219
9.675000190734863
9.6899995803833
9.357500076293945
9.327500343322754
9.09749984741211
9.432499885559082
9.489999771118164
9.422499656677246
9.53499984741211
9.047499656677246
8.680000305175781
9.055000305175781
9.779999732971191
9.072500228881836
8.797499656677246
9.375
9.399999618530273
9.632499694824219
9.524999618530273
9.6274995803833
9.637499809265137
9.430000305175781
9.322500228881836
9.135000228881836
9.307499885559082
9.350000381469727
8.732500076293945
8.835000038146973
8.925000190734863
9.239999771118164
9.130000114440918
9.047499656677246
9.135000228881836
9.4975004196167
9.467499732971191
9.327500343322754
9.369999885559082
9.132499694824219
9.422499656677246
9.444999694824219
8.90250015258789
8.682499885559082
8.664999961853027
9.135000228881836
9.239999771118164
9.15250015258789
9.550000190734863
9.704999923706055
9.28499984741211
9.732500076293945
10.039999961853027
9.602499961853027
9.167499542236328
9.520000457763672
9.489999771118164
9.297499656677246
9.587499618530273
9.71500015258789
9.157500267028809
9.085000038146973
9.15999984741211
9.567500114440918
9.682499885559082
9.672499656677246
9.449999809265137
9.595000267028809
9.90250015258789
9.817500114440918
9.444999694824219
9.5649995803833
9.787500381469727
9.739999771118164
9.537500381469727
9.707500457763672
9.229999542236328
9.59749984741211
9.612500190734863
9.835000038146973
9.5649995803833
9.302499771118164
9.212499618530273
9.024999618530273
9.649999618530273
9.587499618530273
9.925000190734863
9.619999885559082
9.470000267028809
9.204999923706055
9.34749984741211
9.907500267028809
9.3774995803833
9.227499961853027
9.84000015258789
9.982500076293945
9.954999923706055
9.824999809265137
10.114999771118164
10.1225004196167
9.505000114440918
9.680000305175781
9.932499885559082
9.717499732971191
9.4350004196167
9.850000381469727
9.897500038146973
9.732500076293945
9.854999542236328
9.677499771118164
9.632499694824219
9.547499656677246
9.807499885559082
9.84749984741211
10.392499923706055
10.087499618530273
9.854999542236328
9.912500381469727
9.835000038146973
9.505000114440918
9.927499771118164
9.5649995803833
9.462499618530273
9.3100004196167
9.579999923706055
9.882499694824219
9.649999618530273
9.8774995803833
10.1225004196167
9.744999885559082
9.619999885559082
9.765000343322754
9.217499732971191
9.475000381469727
10.029999732971191
9.992500305175781
10.0024995803833
9.664999961853027
9.507499694824219
9.734999656677246
9.600000381469727
9.6899995803833
9.837499618530273
9.707500457763672
9.5600004196167
9.667499542236328
9.579999923706055
9.712499618530273
9.630000114440918
9.329999923706055
9.962499618530273
9.869999885559082
9.630000114440918
9.6850004196167
10.082500457763672
9.880000114440918
10.007499694824219
10.052499771118164
9.90999984741211
9.697500228881836
10.220000267028809
10.167499542236328
9.822500228881836
9.90250015258789
10.352499961853027
9.96500015258789
9.767499923706055
9.577500343322754
9.829999923706055
9.8774995803833
9.875
9.702500343322754
9.479999542236328
9.682499885559082
9.782500267028809
9.792499542236328
9.800000190734863
9.857500076293945
9.930000305175781
9.734999656677246
9.704999923706055
9.787500381469727
9.782500267028809
10.194999694824219
10.265000343322754
9.917499542236328
9.970000267028809
9.739999771118164
9.827500343322754
9.707500457763672
10.039999961853027
10.21500015258789
10.074999809265137
9.672499656677246
9.854999542236328
10.024999618530273
10.130000114440918
10.02750015258789
10.164999961853027
10.162500381469727
10.0649995803833
10.057499885559082
10.055000305175781
10.227499961853027
10.029999732971191
10.02750015258789
9.954999923706055
9.677499771118164
10.0600004196167
10.0
9.922499656677246
9.914999961853027
9.9350004196167
10.1225004196167
9.96500015258789
10.220000267028809
10.204999923706055
9.842499732971191
10.102499961853027
9.917499542236328
9.862500190734863
10.272500038146973
9.97249984741211
10.010000228881836
10.175000190734863
10.6274995803833
10.529999732971191
10.15999984741211
9.982500076293945
9.890000343322754
10.172499656677246
9.977499961853027
10.15250015258789
9.859999656677246
10.0625
10.395000457763672
10.0649995803833
10.25
9.470000267028809
9.827500343322754
10.085000038146973
9.84000015258789
9.954999923706055
9.635000228881836
10.194999694824219
10.260000228881836
10.1225004196167
9.832500457763672
10.1274995803833
10.145000457763672
10.119999885559082
10.202500343322754
10.1850004196167
10.175000190734863
10.482500076293945
9.904999732971191
9.917499542236328
9.642499923706055
10.182499885559082
10.167499542236328
9.8774995803833
10.017499923706055
10.475000381469727
10.337499618530273
9.824999809265137
9.72249984741211
10.537500381469727
10.359999656677246
9.9350004196167
10.0625
10.512499809265137
10.267499923706055
9.737500190734863
10.162500381469727
10.037500381469727
10.21500015258789
10.137499809265137
10.0600004196167
10.102499961853027
10.199999809265137
9.942500114440918
9.789999961853027
9.7475004196167
10.039999961853027
9.694999694824219
9.697500228881836
9.65250015258789
9.545000076293945
9.8774995803833
9.640000343322754
10.142499923706055
10.237500190734863
10.397500038146973
9.942500114440918
10.335000038146973
10.46500015258789
10.020000457763672
9.782500267028809
10.03499984741211
9.8774995803833
9.782500267028809
10.015000343322754
10.390000343322754
10.045000076293945
9.979999542236328
10.2524995803833
10.567500114440918
10.40999984741211
10.107500076293945
9.9350004196167
10.092499732971191
9.8125
10.345000267028809
10.645000457763672
10.607500076293945
10.302499771118164
10.045000076293945
10.012499809265137
10.569999694824219
10.4399995803833
9.994999885559082
9.875
9.774999618530273
10.467499732971191
10.270000457763672
10.52750015258789
10.367500305175781
9.8725004196167
10.204999923706055
10.202500343322754
9.9975004196167
10.292499542236328
9.8125
9.755000114440918
10.130000114440918
10.25
10.487500190734863
10.029999732971191
10.207500457763672
9.84000015258789
10.229999542236328
10.272500038146973
10.167499542236328
9.907500267028809
10.4975004196167
10.614999771118164
10.550000190734863
10.350000381469727
10.1225004196167
10.467499732971191
10.3100004196167
9.975000381469727
10.1875
10.042499542236328
10.132499694824219
10.107500076293945
10.442500114440918
10.359999656677246
10.1875
9.837499618530273
9.739999771118164
10.210000038146973
10.085000038146973
10.095000267028809
10.422499656677246
10.40250015258789
10.27750015258789
9.897500038146973
10.399999618530273
10.354999542236328
10.172499656677246
10.46500015258789
10.262499809265137
10.197500228881836
10.1274995803833
10.225000381469727
9.892499923706055
9.852499961853027
10.289999961853027
10.390000343322754
10.414999961853027
10.359999656677246
10.600000381469727
10.574999809265137
10.305000305175781
10.609999656677246
10.404999732971191
10.135000228881836
10.09000015258789
10.630000114440918
10.517499923706055
10.180000305175781
10.607500076293945
10.569999694824219
10.305000305175781
10.697500228881836
10.522500038146973
10.319999694824219
10.449999809265137
10.342499732971191
10.0600004196167
10.407500267028809
10.524999618530273
10.270000457763672
9.927499771118164
10.517499923706055
9.952500343322754
10.232500076293945
10.212499618530273
10.052499771118164
10.479999542236328
10.619999885559082
9.952500343322754
10.132499694824219
10.489999771118164
10.21500015258789
10.3725004196167
10.300000190734863
10.782500267028809
10.220000267028809
10.225000381469727
10.170000076293945
10.132499694824219
10.194999694824219
10.647500038146973
10.52750015258789
10.457500457763672
10.359999656677246
10.262499809265137
9.887499809265137
10.5649995803833
10.367500305175781
10.107500076293945
10.585000038146973
10.609999656677246
10.147500038146973
10.3774995803833
10.475000381469727
10.225000381469727
9.925000190734863
10.364999771118164
10.587499618530273
10.579999923706055
10.462499618530273
10.292499542236328
10.2475004196167
10.595000267028809
10.125
10.3149995803833
10.772500038146973
10.4375
10.34749984741211
10.3125
10.212499618530273
10.4375
10.242500305175781
10.28499984741211
10.28499984741211
10.4399995803833
10.15999984741211
9.899999618530273
10.5649995803833
10.069999694824219
10.395000457763672
10.28499984741211
10.550000190734863
10.367500305175781
9.952500343322754
10.1850004196167
10.454999923706055
10.479999542236328
10.172499656677246
10.822500228881836
10.390000343322754
10.207500457763672
10.2475004196167
10.335000038146973
10.1850004196167
10.71500015258789
10.385000228881836
10.352499961853027
10.677499771118164
10.672499656677246
10.859999656677246
10.712499618530273
10.452500343322754
10.0024995803833
10.524999618530273
10.324999809265137
10.327500343322754
10.699999809265137
10.354999542236328
10.057499885559082
10.092499732971191
10.9375
10.832500457763672
10.2475004196167
10.260000228881836
10.037500381469727
10.229999542236328
10.46500015258789
10.422499656677246
10.675000190734863
10.342499732971191
10.494999885559082
10.282500267028809
10.03499984741211
10.15999984741211
10.842499732971191
10.397500038146973
10.84000015258789
10.1850004196167
10.297499656677246
10.557499885559082
10.412500381469727
10.520000457763672
10.552499771118164
10.6274995803833
10.707500457763672
10.967499732971191
10.817500114440918
10.425000190734863
10.354999542236328
10.619999885559082
10.517499923706055
10.742500305175781
10.8149995803833
10.130000114440918
10.157500267028809
10.6850004196167
10.507499694824219
10.524999618530273
10.392499923706055
10.617500305175781
10.78499984741211
10.609999656677246
10.420000076293945
10.625
10.662500381469727
10.630000114440918
10.4975004196167
10.712499618530273
10.547499656677246
10.59749984741211
10.369999885559082
10.649999618530273
10.625
10.6875
10.697500228881836
10.625
10.557499885559082
10.515000343322754
10.204999923706055
10.27750015258789
10.619999885559082
10.725000381469727
10.654999732971191
10.417499542236328
10.242500305175781
10.539999961853027
10.612500190734863
10.670000076293945
10.9975004196167
10.9350004196167
10.827500343322754
10.255000114440918
10.8100004196167
10.552499771118164
11.114999771118164
10.442500114440918
10.244999885559082
10.675000190734863
10.522500038146973
11.137499809265137
10.9975004196167
10.802499771118164
10.792499542236328
10.755000114440918
10.895000457763672
10.5
10.292499542236328
10.507499694824219
10.664999961853027
10.827500343322754
10.487500190734863
10.6899995803833
10.75
10.510000228881836
10.232500076293945
10.542499542236328
10.942500114440918
10.802499771118164
10.302499771118164
10.587499618530273
10.774999618530273
10.569999694824219
10.149999618530273
10.632499694824219
10.65250015258789
10.734999656677246
10.742500305175781
10.550000190734863
10.5024995803833
10.59749984741211
10.510000228881836
10.442500114440918
10.577500343322754
11.03499984741211
10.475000381469727
10.414999961853027
10.267499923706055
10.34000015258789
10.72249984741211
10.557499885559082
10.779999732971191
10.77750015258789
10.65999984741211
10.5649995803833
10.755000114440918
10.857500076293945
10.630000114440918
10.725000381469727
10.592499732971191
10.845000267028809
10.680000305175781
11.267499923706055
10.680000305175781
10.782500267028809
10.407500267028809
10.300000190734863
10.755000114440918
10.649999618530273
10.8725004196167
10.817500114440918
10.380000114440918
10.72249984741211
10.957500457763672
11.09000015258789
10.699999809265137
10.572500228881836
10.537500381469727
10.857500076293945
10.595000267028809
10.34749984741211
10.5
10.420000076293945
10.617500305175781
10.792499542236328
10.552499771118164
10.682499885559082
10.742500305175781
10.545000076293945
10.664999961853027
10.720000267028809
10.587499618530273
10.922499656677246
10.739999771118164
10.5649995803833
10.4975004196167
10.279999732971191
10.807499885559082
10.479999542236328
10.572500228881836
10.739999771118164
10.852499961853027
10.582500457763672
10.6899995803833
10.484999656677246
11.050000190734863
10.857500076293945
10.567500114440918
10.545000076293945
10.789999961853027
10.542499542236328
10.667499542236328
10.5625
10.382499694824219
10.444999694824219
10.897500038146973
10.819999694824219
10.430000305175781
10.517499923706055
10.704999923706055
10.819999694824219
10.71500015258789
10.832500457763672
10.524999618530273
10.487500190734863
10.767499923706055
10.524999618530273
10.707500457763672
10.805000305175781
10.854999542236328
10.6899995803833
10.960000038146973
10.5649995803833
10.515000343322754
10.842499732971191
10.90999984741211
10.739999771118164
10.822500228881836
10.592499732971191
10.392499923706055
10.880000114440918
10.71500015258789
10.4975004196167
10.5600004196167
10.417499542236328
10.717499732971191
10.979999542236328
10.407500267028809
10.789999961853027
10.864999771118164
11.0024995803833
11.1225004196167
10.619999885559082
10.829999923706055
10.882499694824219
10.819999694824219
10.482500076293945
10.4350004196167
10.675000190734863
10.829999923706055
10.817500114440918
11.147500038146973
10.569999694824219
10.667499542236328
10.577500343322754
10.609999656677246
10.375
10.6274995803833
10.817500114440918
10.779999732971191
10.957500457763672
10.875
10.829999923706055
10.922499656677246
10.667499542236328
10.399999618530273
10.6899995803833
10.827500343322754
10.739999771118164
11.387499809265137
11.1899995803833
10.5024995803833
10.755000114440918
10.770000457763672
10.737500190734863
10.647500038146973
10.577500343322754
10.1225004196167
10.479999542236328
10.682499885559082
10.827500343322754
11.039999961853027
10.40999984741211
10.46500015258789
10.727499961853027
10.739999771118164
10.592499732971191
10.395000457763672
11.09000015258789
10.697500228881836
10.5024995803833
10.732500076293945
10.694999694824219
10.9350004196167
10.765000343322754
10.505000114440918
10.557499885559082
10.6274995803833
10.75
10.282500267028809
10.462499618530273
10.859999656677246
10.727499961853027
10.412500381469727
10.537500381469727
10.572500228881836
10.662500381469727
10.454999923706055
10.787500381469727
10.9350004196167
10.757499694824219
10.770000457763672
10.819999694824219
10.960000038146973
10.975000381469727
10.447500228881836
10.520000457763672
10.852499961853027
10.7524995803833
11.050000190734863
10.510000228881836
10.520000457763672
10.6850004196167
10.987500190734863
10.6899995803833
10.414999961853027
10.712499618530273
10.954999923706055
11.02750015258789
10.6850004196167
10.72249984741211
10.475000381469727
10.579999923706055
10.557499885559082
10.65250015258789
10.729999542236328
10.569999694824219
10.787500381469727
10.917499542236328
10.489999771118164
10.84749984741211
10.682499885559082
10.40999984741211
11.2475004196167
11.117500305175781
10.452500343322754
10.859999656677246
10.957500457763672
10.475000381469727
10.8774995803833
10.987500190734863
10.680000305175781
10.887499809265137
11.037500381469727
10.787500381469727
10.53499984741211
10.867500305175781
10.5649995803833
10.454999923706055
10.727499961853027
10.602499961853027
10.342499732971191
10.65999984741211
10.505000114440918
10.569999694824219
10.577500343322754
10.484999656677246
10.5024995803833
10.595000267028809
10.882499694824219
10.90250015258789
10.800000190734863
10.720000267028809
11.055000305175781
10.774999618530273
10.3774995803833
10.5
10.670000076293945
10.117500305175781
10.557499885559082
10.600000381469727
10.6850004196167
10.432499885559082
10.9375
10.680000305175781
10.295000076293945
10.522500038146973
11.149999618530273
10.852499961853027
10.7524995803833
10.6850004196167
10.5625
10.517499923706055
10.6274995803833
10.857500076293945
10.667499542236328
11.047499656677246
10.712499618530273
10.774999618530273
10.420000076293945
10.555000305175781
10.710000038146973
10.979999542236328
10.760000228881836
10.729999542236328
10.479999542236328
10.387499809265137
10.489999771118164
10.515000343322754
10.975000381469727
10.454999923706055
10.742500305175781
10.604999542236328
10.697500228881836
10.8100004196167
10.692500114440918
10.904999732971191
10.717499732971191
10.364999771118164
10.885000228881836
10.7524995803833
11.052499771118164
10.9975004196167
10.90250015258789
10.617500305175781
10.71500015258789
10.484999656677246
10.317500114440918
10.782500267028809
10.725000381469727
10.880000114440918
10.547499656677246
10.647500038146973
10.649999618530273
10.672499656677246
10.742500305175781
10.729999542236328
11.1225004196167
10.819999694824219
10.510000228881836
10.727499961853027
11.024999618530273
10.262499809265137
11.107500076293945
11.362500190734863
10.539999961853027
10.774999618530273
10.824999809265137
10.977499961853027
10.537500381469727
10.837499618530273
10.619999885559082
10.572500228881836
10.654999732971191
10.494999885559082
10.744999885559082
10.817500114440918
10.792499542236328
10.432499885559082
10.4350004196167
10.537500381469727
10.657500267028809
10.345000267028809
10.4350004196167
10.6850004196167
10.635000228881836
10.949999809265137
10.682499885559082
10.484999656677246
10.757499694824219
10.335000038146973
10.517499923706055
10.9399995803833
10.914999961853027
10.994999885559082
10.417499542236328
10.725000381469727
10.864999771118164
10.612500190734863
10.612500190734863
10.657500267028809
10.582500457763672
10.515000343322754
10.59749984741211
10.635000228881836
10.505000114440918
10.925000190734863
11.0600004196167
10.797499656677246
11.050000190734863
10.619999885559082
10.832500457763672
10.887499809265137
10.854999542236328
10.742500305175781
10.770000457763672
10.822500228881836
10.824999809265137
11.262499809265137
10.992500305175781
10.449999809265137
10.864999771118164
11.057499885559082
10.920000076293945
10.869999885559082
11.395000457763672
10.592499732971191
10.867500305175781
10.925000190734863
11.3125
10.574999809265137
10.890000343322754
10.800000190734863
10.732500076293945
10.71500015258789
10.692500114440918
10.987500190734863
11.039999961853027
10.994999885559082
10.895000457763672
10.807499885559082
10.385000228881836
10.537500381469727
10.895000457763672
10.789999961853027
11.0625
10.907500267028809
10.989999771118164
11.237500190734863
11.077500343322754
11.074999809265137
10.899999618530273
10.829999923706055
10.765000343322754
11.237500190734863
10.680000305175781
10.8149995803833
10.7475004196167
10.987500190734863
11.112500190734863
11.047499656677246
11.0625
10.635000228881836
11.145000457763672
11.145000457763672
11.0024995803833
10.710000038146973
10.399999618530273
10.637499809265137
10.897500038146973
10.467499732971191
11.074999809265137
10.6899995803833
10.6225004196167
11.1875
10.9975004196167
10.97249984741211
11.0
10.782500267028809
10.75
10.8149995803833
10.670000076293945
11.114999771118164
10.537500381469727
10.797499656677246
10.607500076293945
10.742500305175781
10.922499656677246
10.617500305175781
11.015000343322754
11.114999771118164
11.375
10.7475004196167
10.787500381469727
11.147500038146973
10.362500190734863
10.927499771118164
11.262499809265137
10.96500015258789
10.90250015258789
10.869999885559082
10.90250015258789
10.7475004196167
10.84000015258789
10.795000076293945
11.03499984741211
11.172499656677246
11.079999923706055
10.987500190734863
11.202500343322754
10.907500267028809
10.824999809265137
10.744999885559082
10.987500190734863
11.232500076293945
11.037500381469727
10.90250015258789
10.77750015258789
11.305000305175781
11.017499923706055
10.84000015258789
11.069999694824219
11.0600004196167
11.287500381469727
11.010000228881836
11.029999732971191
10.970000267028809
10.930000305175781
10.977499961853027
10.842499732971191
11.157500267028809
10.6875
10.885000228881836
10.882499694824219
11.037500381469727
10.640000343322754
11.055000305175781
11.229999542236328
11.072500228881836
10.802499771118164
10.895000457763672
10.567500114440918
10.6850004196167
11.244999885559082
11.0024995803833
10.6274995803833
10.642499923706055
10.645000457763672
11.007499694824219
11.087499618530273
11.172499656677246
10.817500114440918
11.069999694824219
11.142499923706055
10.944999694824219
10.760000228881836
10.8725004196167
10.824999809265137
10.782500267028809
10.787500381469727
11.024999618530273
10.960000038146973
10.725000381469727
11.050000190734863
11.022500038146973
10.675000190734863
10.962499618530273
10.90999984741211
10.625
