EpRewMean
0.5968586206436157
0.7713498473167419
0.9275000095367432
1.1425000429153442
1.1775000095367432
1.1749999523162842
1.2274999618530273
1.3524999618530273
1.377500057220459
1.3899999856948853
1.3975000381469727
1.2649999856948853
1.097499966621399
1.2200000286102295
1.3624999523162842
1.3049999475479126
1.25
1.2925000190734863
1.3300000429153442
1.3825000524520874
1.3550000190734863
1.2899999618530273
1.2925000190734863
1.2549999952316284
1.1775000095367432
1.2000000476837158
1.3025000095367432
1.3624999523162842
1.3674999475479126
1.340000033378601
1.3125
1.3350000381469727
1.372499942779541
1.4424999952316284
1.399999976158142
1.4450000524520874
1.3849999904632568
1.402500033378601
1.4474999904632568
1.4075000286102295
1.412500023841858
1.4225000143051147
1.3450000286102295
1.347499966621399
1.3975000381469727
1.4600000381469727
1.4225000143051147
1.4800000190734863
1.4474999904632568
1.4275000095367432
1.4674999713897705
1.5075000524520874
1.5700000524520874
1.4550000429153442
1.4249999523162842
1.402500033378601
1.377500057220459
1.4824999570846558
1.497499942779541
1.5425000190734863
1.5399999618530273
1.6349999904632568
1.6349999904632568
1.5724999904632568
1.6024999618530273
1.565000057220459
1.4850000143051147
1.4075000286102295
1.3925000429153442
1.4450000524520874
1.4500000476837158
1.4225000143051147
1.440000057220459
1.4800000190734863
1.6150000095367432
1.6875
1.7649999856948853
1.6749999523162842
1.6749999523162842
1.6799999475479126
1.722499966621399
1.7675000429153442
1.725000023841858
1.6649999618530273
1.725000023841858
1.725000023841858
1.7925000190734863
1.809999942779541
1.7799999713897705
1.725000023841858
1.747499942779541
1.8250000476837158
1.8324999809265137
1.7074999809265137
1.652500033378601
1.5399999618530273
1.5425000190734863
1.6299999952316284
1.6775000095367432
1.774999976158142
1.8049999475479126
1.850000023841858
1.8550000190734863
1.940000057220459
1.8899999856948853
1.8875000476837158
1.872499942779541
1.7649999856948853
1.8125
1.8899999856948853
1.9225000143051147
1.997499942779541
2.015000104904175
1.9375
1.8174999952316284
1.9450000524520874
1.9225000143051147
1.9774999618530273
1.8025000095367432
1.9299999475479126
1.997499942779541
2.075000047683716
2.1675000190734863
2.234999895095825
2.202500104904175
2.137500047683716
2.1575000286102295
2.0950000286102295
2.127500057220459
2.1075000762939453
2.192500114440918
2.252500057220459
2.127500057220459
2.0875000953674316
2.2074999809265137
2.2850000858306885
2.192500114440918
2.1675000190734863
2.1449999809265137
2.0350000858306885
2.052500009536743
2.0899999141693115
2.140000104904175
2.194999933242798
2.237499952316284
2.3375000953674316
2.327500104904175
2.242500066757202
2.2125000953674316
2.240000009536743
2.262500047683716
2.319999933242798
2.3975000381469727
2.452500104904175
2.5174999237060547
2.487499952316284
2.4625000953674316
2.507499933242798
2.6050000190734863
2.487499952316284
2.4000000953674316
2.4549999237060547
2.387500047683716
2.3949999809265137
2.3399999141693115
2.307499885559082
2.3924999237060547
2.450000047683716
2.432499885559082
2.434999942779541
2.2874999046325684
2.3299999237060547
2.2225000858306885
2.2799999713897705
2.242500066757202
2.3399999141693115
2.3949999809265137
2.509999990463257
2.572499990463257
2.490000009536743
2.5299999713897705
2.4674999713897705
2.555000066757202
2.5625
2.5975000858306885
2.7074999809265137
2.674999952316284
2.7825000286102295
2.880000114440918
2.8450000286102295
2.6449999809265137
2.7274999618530273
2.6475000381469727
2.865000009536743
2.880000114440918
2.882499933242798
2.8949999809265137
2.8975000381469727
2.8450000286102295
2.8299999237060547
2.9049999713897705
2.940000057220459
3.117500066757202
3.190000057220459
3.1075000762939453
3.1575000286102295
3.172499895095825
3.367500066757202
3.484999895095825
3.5299999713897705
3.747499942779541
3.627500057220459
3.6549999713897705
3.640000104904175
3.447499990463257
3.4200000762939453
3.369999885559082
3.297499895095825
3.2074999809265137
3.174999952316284
3.0225000381469727
3.077500104904175
3.180000066757202
3.1524999141693115
3.2750000953674316
3.2725000381469727
3.174999952316284
3.325000047683716
3.2799999713897705
3.2850000858306885
3.2674999237060547
3.1675000190734863
3.3399999141693115
3.362499952316284
3.450000047683716
3.555000066757202
3.4200000762939453
3.547499895095825
3.5399999618530273
3.512500047683716
3.572499990463257
3.484999895095825
3.5950000286102295
3.7225000858306885
3.7950000762939453
3.884999990463257
3.890000104904175
3.8350000381469727
3.9574999809265137
3.865000009536743
3.9124999046325684
3.8424999713897705
3.7725000381469727
3.6524999141693115
3.515000104904175
3.5875000953674316
3.672499895095825
3.927500009536743
4.005000114440918
4.102499961853027
4.137499809265137
4.070000171661377
4.059999942779541
4.0625
4.244999885559082
4.235000133514404
4.317500114440918
4.485000133514404
4.492499828338623
4.369999885559082
4.389999866485596
4.472499847412109
4.772500038146973
4.724999904632568
4.820000171661377
4.767499923706055
4.877500057220459
4.755000114440918
4.65749979019165
4.664999961853027
4.65500020980835
4.682499885559082
4.574999809265137
4.550000190734863
4.559999942779541
4.505000114440918
4.579999923706055
4.462500095367432
4.487500190734863
4.570000171661377
4.784999847412109
5.070000171661377
4.885000228881836
4.954999923706055
4.824999809265137
4.867499828338623
4.827499866485596
4.827499866485596
4.84499979019165
4.902500152587891
4.974999904632568
5.172500133514404
5.267499923706055
5.260000228881836
5.247499942779541
5.014999866485596
5.122499942779541
5.112500190734863
5.222499847412109
5.292500019073486
5.059999942779541
5.105000019073486
5.135000228881836
5.327499866485596
5.289999961853027
5.257500171661377
5.392499923706055
5.512499809265137
5.53249979019165
5.585000038146973
5.614999771118164
5.537499904632568
5.635000228881836
5.650000095367432
5.757500171661377
5.957499980926514
5.824999809265137
5.732500076293945
5.642499923706055
5.485000133514404
5.570000171661377
5.644999980926514
5.704999923706055
5.75
5.599999904632568
5.742499828338623
5.585000038146973
5.625
5.502500057220459
5.577499866485596
5.637499809265137
5.667500019073486
5.784999847412109
5.787499904632568
5.715000152587891
5.702499866485596
5.880000114440918
5.922500133514404
5.9375
5.769999980926514
5.90500020980835
6.0625
6.397500038146973
6.429999828338623
6.477499961853027
6.072500228881836
6.022500038146973
5.882500171661377
5.927499771118164
6.034999847412109
6.215000152587891
6.335000038146973
6.335000038146973
6.207499980926514
6.192500114440918
6.112500190734863
6.15749979019165
6.195000171661377
6.295000076293945
6.097499847412109
6.335000038146973
6.352499961853027
6.28000020980835
6.297500133514404
6.28000020980835
6.3125
6.4375
6.652500152587891
6.557499885559082
6.557499885559082
6.46750020980835
6.34499979019165
6.204999923706055
6.132500171661377
6.272500038146973
6.297500133514404
6.497499942779541
6.5
6.414999961853027
6.300000190734863
6.144999980926514
6.255000114440918
6.320000171661377
6.507500171661377
6.605000019073486
6.622499942779541
6.637499809265137
6.567500114440918
6.497499942779541
6.447500228881836
6.347499847412109
6.369999885559082
6.387499809265137
6.597499847412109
6.684999942779541
6.772500038146973
6.777500152587891
6.610000133514404
6.832499980926514
6.619999885559082
6.727499961853027
6.574999809265137
6.712500095367432
6.6875
6.704999923706055
6.722499847412109
6.489999771118164
6.702499866485596
6.707499980926514
6.864999771118164
7.079999923706055
6.960000038146973
6.920000076293945
6.837500095367432
6.934999942779541
6.704999923706055
6.762499809265137
6.877500057220459
6.929999828338623
6.987500190734863
6.982500076293945
7.057499885559082
7.087500095367432
7.159999847412109
6.96999979019165
6.860000133514404
6.742499828338623
6.747499942779541
6.952499866485596
7.137499809265137
7.172500133514404
7.130000114440918
6.90500020980835
6.994999885559082
7.179999828338623
7.377500057220459
7.054999828338623
7.037499904632568
6.860000133514404
6.949999809265137
7.042500019073486
6.892499923706055
6.994999885559082
6.920000076293945
7.107500076293945
7.28249979019165
7.53249979019165
7.480000019073486
7.625
7.400000095367432
7.369999885559082
7.340000152587891
7.125
7.130000114440918
7.360000133514404
7.632500171661377
7.914999961853027
7.880000114440918
7.622499942779541
7.519999980926514
7.380000114440918
7.452499866485596
7.619999885559082
7.739999771118164
7.849999904632568
7.795000076293945
7.940000057220459
7.664999961853027
7.522500038146973
7.514999866485596
7.297500133514404
7.412499904632568
7.327499866485596
7.272500038146973
7.182499885559082
7.315000057220459
7.420000076293945
7.480000019073486
7.724999904632568
7.617499828338623
7.537499904632568
7.434999942779541
7.082499980926514
7.275000095367432
7.552499771118164
7.65749979019165
7.815000057220459
7.53000020980835
7.425000190734863
7.427499771118164
7.539999961853027
7.704999923706055
7.917500019073486
8.017499923706055
7.892499923706055
7.942500114440918
7.852499961853027
7.962500095367432
7.894999980926514
7.695000171661377
7.614999771118164
7.65749979019165
7.712500095367432
7.739999771118164
7.697500228881836
7.755000114440918
7.760000228881836
7.777500152587891
7.730000019073486
7.752500057220459
7.775000095367432
7.900000095367432
8.057499885559082
8.042499542236328
7.992499828338623
8.1225004196167
7.994999885559082
8.204999923706055
8.177499771118164
8.145000457763672
8.524999618530273
8.637499809265137
8.787500381469727
8.907500267028809
8.59000015258789
7.982500076293945
7.96750020980835
7.802499771118164
8.042499542236328
8.380000114440918
8.282500267028809
8.329999923706055
8.255000114440918
8.404999732971191
8.319999694824219
8.302499771118164
8.569999694824219
8.612500190734863
8.444999694824219
8.420000076293945
8.1899995803833
8.15999984741211
8.279999732971191
8.292499542236328
8.1899995803833
8.145000457763672
8.055000305175781
8.112500190734863
8.447500228881836
8.5600004196167
8.5625
8.737500190734863
8.664999961853027
8.71500015258789
8.7524995803833
8.397500038146973
8.232500076293945
8.199999809265137
8.302499771118164
8.654999732971191
8.595000267028809
8.555000305175781
8.510000228881836
8.404999732971191
8.432499885559082
8.442500114440918
8.557499885559082
8.522500038146973
8.552499771118164
8.484999656677246
8.569999694824219
8.7524995803833
8.672499656677246
8.6875
8.630000114440918
8.574999809265137
8.614999771118164
8.579999923706055
8.512499809265137
8.452500343322754
8.617500305175781
8.755000114440918
8.765000343322754
8.587499618530273
8.557499885559082
8.420000076293945
8.3100004196167
8.067500114440918
7.965000152587891
8.0600004196167
8.154999732971191
8.5600004196167
8.6225004196167
8.484999656677246
8.6274995803833
8.484999656677246
8.442500114440918
8.412500381469727
8.34749984741211
8.279999732971191
8.149999618530273
8.102499961853027
8.077500343322754
8.0625
8.3774995803833
8.602499961853027
8.617500305175781
8.822500228881836
8.75
8.792499542236328
8.930000305175781
8.992500305175781
8.862500190734863
8.757499694824219
8.890000343322754
8.807499885559082
8.967499732971191
9.039999961853027
9.052499771118164
9.1225004196167
9.167499542236328
9.104999542236328
9.227499961853027
9.345000267028809
9.305000305175781
9.03499984741211
8.914999961853027
8.782500267028809
8.827500343322754
9.082500457763672
8.850000381469727
8.77750015258789
8.72249984741211
8.8125
8.977499961853027
9.257499694824219
9.072500228881836
9.079999923706055
9.007499694824219
9.037500381469727
9.057499885559082
9.175000190734863
9.15250015258789
9.154999732971191
9.220000267028809
9.057499885559082
9.132499694824219
9.1899995803833
9.279999732971191
9.362500190734863
9.4350004196167
9.204999923706055
9.125
8.987500190734863
9.172499656677246
9.492500305175781
9.5600004196167
9.552499771118164
9.255000114440918
8.992500305175781
8.832500457763672
8.920000076293945
9.119999885559082
9.15999984741211
9.149999618530273
8.892499923706055
8.8125
8.862500190734863
8.867500305175781
8.922499656677246
9.032500267028809
9.03499984741211
9.140000343322754
9.207500457763672
9.157500267028809
9.052499771118164
9.067500114440918
8.977499961853027
8.880000114440918
9.100000381469727
9.145000457763672
9.462499618530273
9.40250015258789
9.447500228881836
9.305000305175781
9.202500343322754
9.337499618530273
9.477499961853027
9.369999885559082
9.430000305175781
9.282500267028809
9.082500457763672
9.137499809265137
9.117500305175781
9.21500015258789
9.27750015258789
9.332500457763672
9.524999618530273
9.6899995803833
9.557499885559082
9.5024995803833
9.385000228881836
9.40999984741211
9.5649995803833
9.78499984741211
10.0625
9.792499542236328
9.585000038146973
9.557499885559082
9.3125
9.412500381469727
9.600000381469727
9.760000228881836
9.567500114440918
9.819999694824219
9.779999732971191
9.704999923706055
9.675000190734863
9.607500076293945
9.672499656677246
9.457500457763672
9.569999694824219
9.462499618530273
9.180000305175781
9.3125
9.364999771118164
9.327500343322754
9.297499656677246
9.390000343322754
9.225000381469727
9.020000457763672
9.1225004196167
8.922499656677246
9.03499984741211
9.237500190734863
9.22249984741211
9.34749984741211
9.367500305175781
9.352499961853027
9.404999732971191
9.454999923706055
9.375
9.77750015258789
9.4375
9.545000076293945
9.399999618530273
9.085000038146973
9.399999618530273
9.192500114440918
9.420000076293945
9.34000015258789
9.357500076293945
9.59749984741211
9.662500381469727
9.890000343322754
10.052499771118164
9.897500038146973
9.789999961853027
9.475000381469727
9.337499618530273
9.524999618530273
9.607500076293945
9.649999618530273
9.78499984741211
9.720000267028809
9.600000381469727
9.84000015258789
9.904999732971191
10.069999694824219
10.210000038146973
10.182499885559082
10.220000267028809
10.1875
9.979999542236328
9.932499885559082
9.677499771118164
9.962499618530273
10.095000267028809
9.84749984741211
10.052499771118164
9.982500076293945
9.90999984741211
9.957500457763672
9.982500076293945
9.859999656677246
10.087499618530273
10.017499923706055
10.052499771118164
9.97249984741211
9.96500015258789
9.9399995803833
9.795000076293945
9.729999542236328
9.654999732971191
9.807499885559082
10.022500038146973
10.117500305175781
9.97249984741211
10.074999809265137
10.024999618530273
9.757499694824219
9.6850004196167
9.595000267028809
9.612500190734863
9.587499618530273
9.592499732971191
9.880000114440918
9.835000038146973
9.852499961853027
9.802499771118164
9.897500038146973
10.015000343322754
9.967499732971191
10.047499656677246
9.72249984741211
9.732500076293945
9.994999885559082
10.227499961853027
10.234999656677246
10.257499694824219
9.912500381469727
9.800000190734863
9.670000076293945
9.72249984741211
9.845000267028809
9.975000381469727
10.042499542236328
9.920000076293945
9.832500457763672
9.932499885559082
9.960000038146973
9.922499656677246
9.887499809265137
9.779999732971191
9.895000457763672
9.97249984741211
10.007499694824219
10.1274995803833
9.920000076293945
9.854999542236328
9.895000457763672
9.979999542236328
9.989999771118164
10.279999732971191
10.232500076293945
10.552499771118164
10.507499694824219
10.302499771118164
10.350000381469727
10.1225004196167
10.077500343322754
10.020000457763672
10.130000114440918
10.0024995803833
10.162500381469727
10.1899995803833
9.9975004196167
10.0649995803833
10.162500381469727
10.267499923706055
10.109999656677246
10.132499694824219
9.787500381469727
9.84000015258789
10.0
9.96500015258789
9.987500190734863
10.09000015258789
10.149999618530273
10.204999923706055
10.1875
10.255000114440918
10.055000305175781
10.0024995803833
10.074999809265137
9.984999656677246
9.984999656677246
9.932499885559082
9.8149995803833
9.914999961853027
9.765000343322754
9.862500190734863
9.880000114440918
9.987500190734863
10.074999809265137
10.225000381469727
10.21500015258789
10.242500305175781
10.042499542236328
9.947500228881836
10.020000457763672
9.797499656677246
9.944999694824219
9.84000015258789
9.614999771118164
9.852499961853027
9.859999656677246
10.020000457763672
10.0024995803833
10.117500305175781
10.260000228881836
10.287500381469727
10.517499923706055
10.367500305175781
10.260000228881836
10.079999923706055
10.020000457763672
10.015000343322754
9.922499656677246
10.012499809265137
10.015000343322754
10.104999542236328
10.25
10.282500267028809
10.427499771118164
10.462499618530273
10.34749984741211
10.1899995803833
10.012499809265137
10.037500381469727
10.119999885559082
10.234999656677246
10.279999732971191
10.3149995803833
10.342499732971191
10.2524995803833
10.322500228881836
10.287500381469727
10.255000114440918
10.579999923706055
10.272500038146973
10.335000038146973
10.289999961853027
10.125
10.170000076293945
10.337499618530273
10.09000015258789
9.962499618530273
10.085000038146973
10.095000267028809
10.267499923706055
10.444999694824219
10.482500076293945
10.367500305175781
10.487500190734863
10.260000228881836
10.22249984741211
10.457500457763672
10.492500305175781
10.362500190734863
10.305000305175781
10.3149995803833
10.550000190734863
10.604999542236328
10.602499961853027
10.460000038146973
10.357500076293945
10.362500190734863
10.369999885559082
10.307499885559082
10.512499809265137
10.482500076293945
10.6225004196167
10.6274995803833
10.797499656677246
10.737500190734863
10.792499542236328
10.887499809265137
10.619999885559082
10.737500190734863
10.649999618530273
10.6274995803833
10.582500457763672
10.6225004196167
10.677499771118164
10.680000305175781
10.6899995803833
10.5649995803833
10.550000190734863
10.520000457763672
10.422499656677246
10.542499542236328
10.462499618530273
10.327500343322754
10.460000038146973
10.672499656677246
10.9375
10.887499809265137
10.632499694824219
10.4375
10.28499984741211
10.039999961853027
10.022500038146973
10.1850004196167
10.305000305175781
10.300000190734863
10.869999885559082
10.907500267028809
10.797499656677246
10.734999656677246
10.5625
10.024999618530273
9.962499618530273
10.359999656677246
10.3149995803833
10.710000038146973
11.09000015258789
10.837499618530273
11.077500343322754
11.167499542236328
10.8125
11.1850004196167
11.050000190734863
10.8725004196167
10.6899995803833
10.642499923706055
10.772500038146973
10.827500343322754
10.772500038146973
10.779999732971191
10.869999885559082
10.795000076293945
10.734999656677246
10.529999732971191
10.287500381469727
10.507499694824219
10.470000267028809
10.710000038146973
10.875
10.824999809265137
10.550000190734863
10.5625
10.47249984741211
10.432499885559082
10.682499885559082
10.767499923706055
10.667499542236328
10.667499542236328
10.675000190734863
10.675000190734863
10.507499694824219
10.800000190734863
10.779999732971191
10.819999694824219
11.029999732971191
10.875
10.880000114440918
10.962499618530273
10.994999885559082
11.024999618530273
11.037500381469727
10.984999656677246
10.994999885559082
11.145000457763672
11.324999809265137
11.177499771118164
11.132499694824219
11.220000267028809
11.02750015258789
11.052499771118164
10.914999961853027
10.930000305175781
10.710000038146973
10.704999923706055
10.989999771118164
11.192500114440918
11.104999542236328
11.0649995803833
11.197500228881836
11.005000114440918
11.03499984741211
11.335000038146973
11.210000038146973
11.272500038146973
11.1875
11.15250015258789
11.029999732971191
11.03499984741211
11.039999961853027
11.22249984741211
11.582500457763672
11.337499618530273
11.5024995803833
11.47249984741211
10.899999618530273
11.012499809265137
10.899999618530273
11.0600004196167
11.15999984741211
11.3149995803833
11.272500038146973
11.307499885559082
11.197500228881836
11.03499984741211
11.137499809265137
11.180000305175781
11.045000076293945
11.117500305175781
11.012499809265137
10.767499923706055
10.647500038146973
10.72249984741211
10.779999732971191
11.015000343322754
11.212499618530273
11.350000381469727
11.65999984741211
11.819999694824219
11.792499542236328
11.90250015258789
11.587499618530273
11.417499542236328
11.029999732971191
10.96500015258789
11.107500076293945
11.457500457763672
11.607500076293945
11.574999809265137
11.550000190734863
11.515000343322754
11.375
11.462499618530273
11.257499694824219
11.390000343322754
11.069999694824219
11.142499923706055
11.270000457763672
11.032500267028809
11.072500228881836
11.192500114440918
11.045000076293945
11.234999656677246
11.220000267028809
11.324999809265137
11.59000015258789
11.307499885559082
11.397500038146973
11.272500038146973
10.90999984741211
11.09749984741211
11.265000343322754
11.037500381469727
11.137499809265137
10.899999618530273
10.949999809265137
11.164999961853027
11.024999618530273
11.420000076293945
11.237500190734863
11.217499732971191
11.25
11.40250015258789
11.25
11.199999809265137
11.300000190734863
11.255000114440918
11.272500038146973
11.385000228881836
11.305000305175781
10.954999923706055
11.074999809265137
11.25
11.422499656677246
11.694999694824219
11.507499694824219
11.412500381469727
11.180000305175781
11.329999923706055
11.65999984741211
11.8125
12.289999961853027
12.207500457763672
12.22249984741211
12.342499732971191
12.100000381469727
12.1850004196167
12.119999885559082
11.805000305175781
11.734999656677246
11.470000267028809
11.649999618530273
11.637499809265137
11.595000267028809
11.692500114440918
11.539999961853027
11.287500381469727
11.272500038146973
11.140000343322754
11.142499923706055
11.21500015258789
11.337499618530273
11.217499732971191
11.289999961853027
11.492500305175781
11.417499542236328
11.984999656677246
11.922499656677246
12.045000076293945
12.154999732971191
11.75
12.079999923706055
11.987500190734863
12.015000343322754
11.77750015258789
11.582500457763672
11.0
10.829999923706055
10.770000457763672
10.72249984741211
11.194999694824219
11.229999542236328
11.555000305175781
11.3100004196167
11.079999923706055
11.1225004196167
10.97249984741211
11.157500267028809
11.4399995803833
11.592499732971191
11.52750015258789
11.34000015258789
11.050000190734863
11.047499656677246
11.515000343322754
11.609999656677246
11.954999923706055
12.27750015258789
11.8125
11.65999984741211
11.630000114440918
11.444999694824219
11.462499618530273
11.772500038146973
11.537500381469727
11.0625
11.119999885559082
10.982500076293945
11.112500190734863
11.467499732971191
11.454999923706055
11.172499656677246
10.944999694824219
11.22249984741211
11.270000457763672
11.292499542236328
11.53499984741211
11.302499771118164
11.524999618530273
11.337499618530273
11.262499809265137
11.175000190734863
11.142499923706055
11.162500381469727
11.274999618530273
11.262499809265137
11.5024995803833
11.699999809265137
11.604999542236328
12.1850004196167
12.232500076293945
12.342499732971191
12.297499656677246
11.819999694824219
11.694999694824219
11.537500381469727
11.654999732971191
11.692500114440918
11.664999961853027
11.407500267028809
11.550000190734863
11.524999618530273
11.762499809265137
11.979999542236328
11.7524995803833
11.682499885559082
11.6899995803833
11.545000076293945
11.612500190734863
11.579999923706055
11.837499618530273
11.850000381469727
11.875
11.942500114440918
11.572500228881836
11.680000305175781
11.619999885559082
11.53499984741211
11.279999732971191
11.229999542236328
11.507499694824219
11.739999771118164
11.954999923706055
11.770000457763672
11.657500267028809
11.2524995803833
11.682499885559082
12.0649995803833
12.27750015258789
12.430000305175781
12.077500343322754
12.202500343322754
12.1225004196167
12.135000228881836
12.1225004196167
11.65250015258789
11.614999771118164
11.637499809265137
11.649999618530273
12.217499732971191
11.982500076293945
11.982500076293945
12.135000228881836
11.887499809265137
12.255000114440918
12.289999961853027
11.952500343322754
11.8725004196167
11.895000457763672
11.857500076293945
11.97249984741211
12.012499809265137
11.637499809265137
11.512499809265137
11.725000381469727
11.302499771118164
11.172499656677246
11.324999809265137
11.234999656677246
11.654999732971191
11.927499771118164
11.822500228881836
12.3149995803833
12.414999961853027
12.382499694824219
11.952500343322754
11.90999984741211
11.922499656677246
11.692500114440918
12.045000076293945
11.869999885559082
11.782500267028809
11.994999885559082
12.092499732971191
11.96500015258789
11.842499732971191
11.762499809265137
11.6225004196167
11.467499732971191
11.682499885559082
11.892499923706055
11.637499809265137
12.1225004196167
12.142499923706055
11.920000076293945
12.149999618530273
11.949999809265137
11.619999885559082
11.732500076293945
11.90250015258789
12.319999694824219
12.487500190734863
12.385000228881836
11.970000267028809
11.604999542236328
11.425000190734863
11.774999618530273
11.710000038146973
12.085000038146973
12.537500381469727
12.432499885559082
12.604999542236328
12.800000190734863
12.729999542236328
12.619999885559082
12.537500381469727
12.125
11.694999694824219
11.569999694824219
11.672499656677246
11.725000381469727
11.90999984741211
12.130000114440918
12.760000228881836
12.967499732971191
13.484999656677246
13.317500114440918
12.822500228881836
12.637499809265137
12.59749984741211
12.852499961853027
13.079999923706055
12.770000457763672
12.632499694824219
12.489999771118164
12.537500381469727
12.887499809265137
12.875
12.892499923706055
12.822500228881836
12.612500190734863
12.477499961853027
12.069999694824219
12.287500381469727
12.517499923706055
12.72249984741211
12.827500343322754
12.649999618530273
12.375
11.979999542236328
12.242500305175781
12.015000343322754
11.930000305175781
12.359999656677246
12.147500038146973
12.532500267028809
12.649999618530273
12.609999656677246
12.802499771118164
12.97249984741211
12.9975004196167
12.989999771118164
12.574999809265137
12.46500015258789
12.225000381469727
12.297499656677246
12.604999542236328
12.449999809265137
12.422499656677246
12.182499885559082
12.487500190734863
12.614999771118164
12.4350004196167
12.425000190734863
12.369999885559082
12.520000457763672
12.640000343322754
12.992500305175781
12.670000076293945
12.694999694824219
12.425000190734863
12.522500038146973
12.702500343322754
12.77750015258789
12.807499885559082
12.457500457763672
12.095000267028809
12.385000228881836
12.342499732971191
12.760000228881836
12.932499885559082
12.78499984741211
12.649999618530273
12.677499771118164
12.65250015258789
12.912500381469727
12.342499732971191
12.430000305175781
12.807499885559082
12.077500343322754
12.282500267028809
12.680000305175781
13.225000381469727
13.0024995803833
12.824999809265137
12.762499809265137
13.055000305175781
12.6225004196167
12.595000267028809
12.3100004196167
12.479999542236328
12.84000015258789
12.979999542236328
12.925000190734863
12.517499923706055
12.422499656677246
12.329999923706055
12.257499694824219
12.399999618530273
12.295000076293945
12.595000267028809
12.7475004196167
13.082500457763672
13.130000114440918
12.577500343322754
12.550000190734863
12.484999656677246
13.074999809265137
12.9350004196167
12.78499984741211
12.789999961853027
12.667499542236328
12.822500228881836
12.954999923706055
12.734999656677246
12.765000343322754
12.7475004196167
12.699999809265137
12.630000114440918
12.482500076293945
12.332500457763672
12.114999771118164
12.345000267028809
12.042499542236328
12.007499694824219
12.175000190734863
12.182499885559082
12.510000228881836
12.375
12.397500038146973
12.662500381469727
13.029999732971191
13.112500190734863
13.069999694824219
12.837499618530273
12.732500076293945
12.727499961853027
