EpRewMean
0.5835543870925903
0.8500000238418579
1.4249999523162842
1.100000023841858
1.600000023841858
1.225000023841858
1.25
1.5499999523162842
1.375
1.399999976158142
1.7000000476837158
1.5750000476837158
1.024999976158142
1.7999999523162842
1.375
1.25
1.399999976158142
1.75
1.5
1.1749999523162842
1.4249999523162842
1.350000023841858
1.4249999523162842
1.5
1.5750000476837158
1.5750000476837158
1.5
1.600000023841858
1.899999976158142
1.524999976158142
1.399999976158142
1.524999976158142
1.4500000476837158
1.600000023841858
1.625
1.625
1.774999976158142
1.625
1.4249999523162842
1.774999976158142
1.75
2.0999999046325684
1.9249999523162842
1.850000023841858
2.2249999046325684
1.975000023841858
2.0999999046325684
1.725000023841858
1.649999976158142
1.9249999523162842
1.5499999523162842
1.649999976158142
1.5750000476837158
1.75
2.049999952316284
1.7000000476837158
1.9249999523162842
1.875
1.850000023841858
1.899999976158142
1.649999976158142
2.0999999046325684
1.9249999523162842
1.524999976158142
2.075000047683716
1.75
2.2249999046325684
2.299999952316284
1.7999999523162842
2.0250000953674316
1.7999999523162842
1.9500000476837158
1.7000000476837158
2.0
2.299999952316284
2.174999952316284
2.0999999046325684
1.875
2.049999952316284
2.1500000953674316
1.8250000476837158
1.975000023841858
1.850000023841858
2.2249999046325684
2.125
1.9249999523162842
2.3499999046325684
1.975000023841858
1.774999976158142
2.0
2.075000047683716
2.1500000953674316
2.125
2.075000047683716
1.9249999523162842
2.075000047683716
1.75
2.049999952316284
1.8250000476837158
1.975000023841858
2.4749999046325684
2.424999952316284
2.2249999046325684
2.0250000953674316
1.8250000476837158
1.774999976158142
2.2249999046325684
2.25
2.1500000953674316
2.174999952316284
1.7999999523162842
2.125
2.049999952316284
2.125
2.424999952316284
2.075000047683716
1.774999976158142
1.975000023841858
2.075000047683716
1.8250000476837158
2.0250000953674316
1.875
2.3499999046325684
2.25
2.125
2.0
2.049999952316284
1.875
2.25
1.975000023841858
1.7999999523162842
2.0999999046325684
2.200000047683716
1.875
2.174999952316284
1.875
2.125
2.2249999046325684
1.899999976158142
1.9500000476837158
1.9500000476837158
2.4749999046325684
2.0250000953674316
1.774999976158142
2.375
2.0250000953674316
2.2249999046325684
2.0999999046325684
2.200000047683716
2.4749999046325684
2.4000000953674316
2.0250000953674316
2.1500000953674316
2.674999952316284
2.2750000953674316
2.174999952316284
2.325000047683716
2.6500000953674316
2.0250000953674316
2.125
2.0
2.424999952316284
2.299999952316284
2.174999952316284
2.2750000953674316
2.125
2.4000000953674316
2.375
2.450000047683716
2.5999999046325684
2.375
2.4749999046325684
2.375
2.4000000953674316
2.1500000953674316
2.5250000953674316
2.549999952316284
2.7249999046325684
2.25
2.6500000953674316
2.549999952316284
2.049999952316284
2.5250000953674316
2.6500000953674316
3.25
2.625
2.25
2.674999952316284
2.9000000953674316
2.549999952316284
2.0250000953674316
2.875
2.549999952316284
2.625
2.9749999046325684
3.049999952316284
3.0250000953674316
3.6500000953674316
3.6500000953674316
3.5999999046325684
3.1500000953674316
3.625
3.4000000953674316
3.2750000953674316
3.674999952316284
3.924999952316284
3.5999999046325684
3.549999952316284
3.174999952316284
3.575000047683716
3.200000047683716
3.9749999046325684
3.0
3.450000047683716
3.7750000953674316
3.799999952316284
4.074999809265137
4.175000190734863
4.074999809265137
4.175000190734863
4.474999904632568
4.375
4.425000190734863
4.125
4.074999809265137
3.8499999046325684
4.275000095367432
4.550000190734863
4.349999904632568
4.625
3.924999952316284
4.775000095367432
4.025000095367432
5.074999809265137
4.324999809265137
4.25
4.474999904632568
4.324999809265137
4.75
4.875
4.650000095367432
4.675000190734863
4.650000095367432
4.675000190734863
4.650000095367432
4.449999809265137
4.824999809265137
4.474999904632568
4.849999904632568
4.625
4.699999809265137
4.800000190734863
4.300000190734863
4.974999904632568
4.849999904632568
5.074999809265137
4.675000190734863
4.974999904632568
4.925000190734863
4.675000190734863
5.0
4.974999904632568
4.775000095367432
5.199999809265137
5.125
5.375
5.150000095367432
5.074999809265137
5.224999904632568
5.050000190734863
5.400000095367432
5.025000095367432
5.199999809265137
5.449999809265137
5.050000190734863
5.224999904632568
4.949999809265137
5.349999904632568
4.824999809265137
5.175000190734863
5.0
5.699999809265137
5.099999904632568
5.324999809265137
5.324999809265137
5.724999904632568
5.724999904632568
5.550000190734863
5.125
5.0
5.224999904632568
5.125
5.400000095367432
5.400000095367432
5.125
5.675000190734863
5.25
5.449999809265137
5.550000190734863
5.25
5.400000095367432
5.724999904632568
5.275000095367432
6.099999904632568
5.800000190734863
5.625
5.900000095367432
6.050000190734863
5.775000095367432
5.625
5.800000190734863
5.675000190734863
6.099999904632568
5.525000095367432
6.099999904632568
5.925000190734863
5.900000095367432
6.074999809265137
5.824999809265137
6.0
5.925000190734863
5.724999904632568
6.724999904632568
5.974999904632568
5.849999904632568
6.275000095367432
6.25
6.125
6.099999904632568
5.775000095367432
6.25
5.974999904632568
6.474999904632568
6.425000190734863
6.275000095367432
6.099999904632568
6.275000095367432
6.474999904632568
6.400000095367432
6.525000095367432
6.525000095367432
6.025000095367432
6.324999809265137
6.375
6.824999809265137
6.5
6.699999809265137
6.625
6.300000190734863
6.724999904632568
6.5
6.699999809265137
6.550000190734863
7.0
6.349999904632568
6.824999809265137
6.849999904632568
7.050000190734863
6.800000190734863
7.599999904632568
7.449999809265137
6.974999904632568
7.224999904632568
7.474999904632568
7.550000190734863
7.824999809265137
7.550000190734863
7.650000095367432
7.375
8.024999618530273
7.824999809265137
7.574999809265137
7.625
7.574999809265137
7.150000095367432
7.474999904632568
7.849999904632568
7.550000190734863
7.599999904632568
8.100000381469727
7.599999904632568
7.824999809265137
7.775000095367432
7.599999904632568
7.699999809265137
7.775000095367432
8.125
7.925000190734863
7.775000095367432
7.349999904632568
7.875
7.775000095367432
8.050000190734863
7.800000190734863
8.300000190734863
7.949999809265137
8.350000381469727
7.974999904632568
7.824999809265137
7.824999809265137
7.875
8.225000381469727
8.0
7.925000190734863
8.100000381469727
8.024999618530273
7.925000190734863
8.0
8.0
7.925000190734863
8.300000190734863
8.449999809265137
8.149999618530273
8.399999618530273
8.050000190734863
7.974999904632568
8.425000190734863
7.849999904632568
8.175000190734863
7.849999904632568
8.25
7.949999809265137
7.925000190734863
7.800000190734863
8.149999618530273
8.324999809265137
8.5
8.024999618530273
8.324999809265137
8.25
8.175000190734863
8.050000190734863
8.300000190734863
7.974999904632568
8.300000190734863
8.324999809265137
8.175000190734863
8.524999618530273
8.524999618530273
7.949999809265137
8.274999618530273
8.375
8.625
8.350000381469727
8.125
8.300000190734863
8.524999618530273
7.925000190734863
8.024999618530273
8.300000190734863
8.300000190734863
8.225000381469727
8.100000381469727
8.274999618530273
7.949999809265137
7.800000190734863
8.225000381469727
8.399999618530273
8.399999618530273
8.550000190734863
8.274999618530273
8.425000190734863
8.5
8.350000381469727
8.274999618530273
8.149999618530273
8.149999618530273
8.449999809265137
8.475000381469727
8.300000190734863
8.75
8.350000381469727
8.524999618530273
8.375
8.600000381469727
8.625
8.25
8.425000190734863
8.449999809265137
8.625
8.5
8.175000190734863
8.300000190734863
8.449999809265137
8.324999809265137
8.524999618530273
8.649999618530273
8.675000190734863
8.625
8.149999618530273
8.324999809265137
8.649999618530273
7.900000095367432
8.050000190734863
8.175000190734863
8.574999809265137
8.399999618530273
8.725000381469727
8.475000381469727
8.725000381469727
8.699999809265137
8.475000381469727
8.524999618530273
8.425000190734863
8.475000381469727
8.425000190734863
8.25
8.225000381469727
8.375
8.274999618530273
8.324999809265137
8.399999618530273
8.300000190734863
8.175000190734863
8.100000381469727
8.399999618530273
8.225000381469727
8.399999618530273
8.274999618530273
8.0
8.050000190734863
8.125
8.0
7.925000190734863
8.024999618530273
8.0
8.050000190734863
8.199999809265137
8.074999809265137
8.074999809265137
8.399999618530273
8.125
7.625
7.949999809265137
8.300000190734863
7.974999904632568
8.425000190734863
8.225000381469727
8.274999618530273
8.225000381469727
8.350000381469727
8.125
8.25
8.050000190734863
8.274999618530273
8.5
8.149999618530273
8.125
7.824999809265137
8.225000381469727
8.375
8.550000190734863
8.199999809265137
8.300000190734863
7.75
8.574999809265137
8.5
8.175000190734863
8.550000190734863
8.175000190734863
8.399999618530273
8.375
8.425000190734863
8.524999618530273
8.449999809265137
7.925000190734863
8.199999809265137
8.149999618530273
8.475000381469727
8.350000381469727
8.375
8.175000190734863
8.199999809265137
7.574999809265137
7.824999809265137
8.024999618530273
7.625
8.199999809265137
8.125
7.5
7.75
7.949999809265137
8.0
8.375
8.0
8.375
8.350000381469727
8.175000190734863
7.875
8.050000190734863
8.225000381469727
8.300000190734863
8.625
8.125
7.875
7.949999809265137
7.875
7.800000190734863
7.775000095367432
8.100000381469727
8.024999618530273
8.300000190734863
8.350000381469727
8.149999618530273
7.599999904632568
8.100000381469727
8.350000381469727
7.974999904632568
7.925000190734863
8.050000190734863
8.125
8.125
8.824999809265137
8.324999809265137
8.100000381469727
8.274999618530273
8.274999618530273
8.175000190734863
8.524999618530273
8.5
8.425000190734863
8.350000381469727
8.850000381469727
8.350000381469727
8.675000190734863
8.125
8.350000381469727
8.524999618530273
8.75
8.675000190734863
8.725000381469727
8.5
8.675000190734863
8.399999618530273
8.449999809265137
9.0
8.449999809265137
8.425000190734863
8.274999618530273
8.324999809265137
8.725000381469727
8.550000190734863
8.600000381469727
8.574999809265137
8.300000190734863
8.5
8.475000381469727
8.725000381469727
8.175000190734863
8.425000190734863
8.550000190734863
8.225000381469727
8.574999809265137
8.725000381469727
8.350000381469727
8.800000190734863
8.800000190734863
8.824999809265137
8.699999809265137
8.574999809265137
8.0
8.574999809265137
8.550000190734863
8.574999809265137
8.550000190734863
8.625
8.75
8.475000381469727
8.350000381469727
8.675000190734863
8.75
8.725000381469727
8.800000190734863
8.649999618530273
8.725000381469727
8.449999809265137
8.625
8.774999618530273
8.574999809265137
8.675000190734863
8.550000190734863
8.175000190734863
8.5
8.550000190734863
8.324999809265137
8.324999809265137
8.675000190734863
8.574999809265137
8.600000381469727
8.600000381469727
8.600000381469727
8.625
8.149999618530273
8.600000381469727
8.425000190734863
8.199999809265137
8.300000190734863
8.350000381469727
8.375
8.074999809265137
7.974999904632568
8.149999618530273
8.300000190734863
8.324999809265137
8.300000190734863
8.600000381469727
8.425000190734863
8.25
8.850000381469727
8.524999618530273
8.324999809265137
8.324999809265137
8.350000381469727
8.225000381469727
8.524999618530273
8.350000381469727
8.175000190734863
8.350000381469727
8.225000381469727
8.425000190734863
8.274999618530273
8.5
8.425000190734863
8.449999809265137
8.649999618530273
8.675000190734863
8.399999618530273
8.475000381469727
8.524999618530273
8.225000381469727
8.324999809265137
7.974999904632568
8.125
8.024999618530273
8.449999809265137
8.274999618530273
8.199999809265137
8.324999809265137
8.350000381469727
8.425000190734863
8.425000190734863
8.5
8.649999618530273
8.399999618530273
8.399999618530273
8.449999809265137
8.449999809265137
8.175000190734863
8.5
8.699999809265137
8.699999809265137
8.399999618530273
8.399999618530273
8.524999618530273
8.5
8.199999809265137
8.550000190734863
8.649999618530273
8.774999618530273
8.774999618530273
8.425000190734863
8.050000190734863
8.350000381469727
8.524999618530273
8.725000381469727
8.449999809265137
8.649999618530273
8.425000190734863
8.475000381469727
8.350000381469727
8.350000381469727
8.300000190734863
8.800000190734863
8.649999618530273
8.725000381469727
8.675000190734863
8.449999809265137
8.725000381469727
8.699999809265137
8.75
9.0
8.350000381469727
8.824999809265137
8.350000381469727
8.625
8.824999809265137
8.925000190734863
8.649999618530273
8.824999809265137
8.675000190734863
8.800000190734863
8.75
8.675000190734863
8.800000190734863
8.699999809265137
8.675000190734863
8.449999809265137
8.600000381469727
8.475000381469727
8.625
8.725000381469727
8.800000190734863
8.824999809265137
8.850000381469727
8.199999809265137
8.699999809265137
8.975000381469727
8.5
8.449999809265137
8.475000381469727
8.675000190734863
8.824999809265137
8.949999809265137
8.649999618530273
8.75
9.074999809265137
8.425000190734863
8.774999618530273
8.550000190734863
8.649999618530273
8.774999618530273
8.774999618530273
8.699999809265137
9.25
8.774999618530273
8.925000190734863
8.774999618530273
8.75
8.925000190734863
8.899999618530273
9.225000381469727
9.074999809265137
9.0
8.800000190734863
8.850000381469727
8.625
8.600000381469727
8.675000190734863
8.75
8.550000190734863
8.899999618530273
8.449999809265137
8.899999618530273
9.199999809265137
8.850000381469727
8.699999809265137
8.649999618530273
8.725000381469727
8.475000381469727
8.449999809265137
8.824999809265137
8.5
8.925000190734863
8.975000381469727
9.024999618530273
8.850000381469727
8.850000381469727
9.050000190734863
8.399999618530273
8.899999618530273
8.975000381469727
8.925000190734863
8.675000190734863
8.975000381469727
8.699999809265137
8.875
8.524999618530273
9.050000190734863
9.0
8.925000190734863
8.524999618530273
8.774999618530273
9.199999809265137
8.875
8.625
8.824999809265137
8.75
8.800000190734863
8.925000190734863
8.875
9.0
9.074999809265137
8.899999618530273
9.125
9.199999809265137
9.050000190734863
9.175000190734863
9.175000190734863
8.949999809265137
9.175000190734863
9.074999809265137
9.050000190734863
9.074999809265137
9.175000190734863
9.050000190734863
9.125
8.875
8.824999809265137
8.75
9.225000381469727
8.574999809265137
8.574999809265137
8.925000190734863
8.875
8.949999809265137
8.774999618530273
8.649999618530273
8.699999809265137
8.824999809265137
8.949999809265137
9.175000190734863
8.574999809265137
9.125
8.800000190734863
8.824999809265137
9.125
9.175000190734863
9.149999618530273
8.774999618530273
9.125
9.050000190734863
9.225000381469727
8.925000190734863
9.100000381469727
9.375
8.925000190734863
8.949999809265137
9.100000381469727
8.75
9.050000190734863
9.024999618530273
9.024999618530273
8.899999618530273
9.225000381469727
8.800000190734863
8.824999809265137
9.125
8.774999618530273
9.024999618530273
8.925000190734863
9.074999809265137
8.925000190734863
8.75
9.125
8.949999809265137
9.175000190734863
9.050000190734863
8.975000381469727
7.824999809265137
4.900000095367432
2.674999952316284
2.700000047683716
2.75
2.8499999046325684
2.875
2.799999952316284
2.5
2.5
2.75
2.7750000953674316
2.5999999046325684
2.5250000953674316
2.924999952316284
3.4000000953674316
3.7750000953674316
4.375
4.75
4.275000095367432
3.7249999046325684
3.9000000953674316
3.799999952316284
3.8499999046325684
3.9749999046325684
4.199999809265137
4.199999809265137
4.150000095367432
4.025000095367432
4.300000190734863
4.650000095367432
5.050000190734863
5.349999904632568
4.824999809265137
5.125
5.300000190734863
5.175000190734863
5.5
6.150000095367432
6.125
6.400000095367432
6.625
6.550000190734863
6.599999904632568
6.775000095367432
6.724999904632568
6.875
6.824999809265137
7.074999809265137
7.574999809265137
7.474999904632568
7.474999904632568
7.75
8.199999809265137
8.324999809265137
8.5
8.375
8.375
8.649999618530273
8.675000190734863
8.649999618530273
8.675000190734863
8.850000381469727
8.350000381469727
8.75
8.524999618530273
9.100000381469727
9.050000190734863
8.875
8.699999809265137
8.649999618530273
8.850000381469727
9.0
9.074999809265137
9.199999809265137
9.125
8.875
9.050000190734863
8.850000381469727
9.074999809265137
8.949999809265137
9.125
9.024999618530273
8.975000381469727
9.225000381469727
9.175000190734863
9.300000190734863
8.850000381469727
8.925000190734863
9.024999618530273
9.350000381469727
9.399999618530273
8.850000381469727
9.274999618530273
9.149999618530273
9.0
9.324999809265137
9.225000381469727
9.199999809265137
9.225000381469727
9.125
9.100000381469727
9.074999809265137
9.125
9.175000190734863
9.149999618530273
9.199999809265137
9.125
9.100000381469727
9.074999809265137
9.149999618530273
9.074999809265137
9.024999618530273
9.399999618530273
9.199999809265137
9.175000190734863
9.25
9.5
9.350000381469727
9.225000381469727
9.475000381469727
9.225000381469727
9.100000381469727
9.074999809265137
8.949999809265137
9.100000381469727
9.199999809265137
9.199999809265137
9.199999809265137
9.175000190734863
9.175000190734863
9.024999618530273
9.25
9.149999618530273
9.375
9.125
9.0
9.074999809265137
9.324999809265137
9.100000381469727
9.25
9.199999809265137
9.300000190734863
9.425000190734863
9.175000190734863
9.149999618530273
9.199999809265137
9.100000381469727
9.274999618530273
9.399999618530273
9.149999618530273
9.225000381469727
9.125
9.074999809265137
9.25
9.324999809265137
9.149999618530273
9.074999809265137
9.350000381469727
9.25
9.175000190734863
9.25
9.300000190734863
9.274999618530273
9.274999618530273
9.324999809265137
9.074999809265137
9.274999618530273
9.324999809265137
8.824999809265137
9.149999618530273
9.324999809265137
9.100000381469727
9.324999809265137
9.149999618530273
9.024999618530273
9.25
9.300000190734863
9.024999618530273
9.300000190734863
9.225000381469727
9.0
8.850000381469727
9.274999618530273
9.149999618530273
9.050000190734863
9.125
9.149999618530273
9.125
9.0
9.199999809265137
9.149999618530273
9.225000381469727
9.199999809265137
9.199999809265137
9.149999618530273
9.324999809265137
9.300000190734863
9.449999809265137
9.100000381469727
9.199999809265137
9.274999618530273
9.350000381469727
9.274999618530273
9.024999618530273
9.25
9.125
9.125
9.225000381469727
9.050000190734863
9.074999809265137
9.175000190734863
9.300000190734863
9.225000381469727
9.425000190734863
9.149999618530273
9.024999618530273
9.25
9.024999618530273
9.375
9.350000381469727
9.274999618530273
9.175000190734863
9.199999809265137
9.25
9.125
9.300000190734863
9.324999809265137
9.199999809265137
9.199999809265137
9.449999809265137
9.074999809265137
9.024999618530273
9.324999809265137
9.324999809265137
9.199999809265137
9.274999618530273
9.125
9.125
9.274999618530273
9.300000190734863
9.024999618530273
9.225000381469727
9.125
9.225000381469727
9.175000190734863
9.199999809265137
9.350000381469727
9.375
9.324999809265137
9.375
9.649999618530273
9.375
9.449999809265137
9.225000381469727
9.350000381469727
9.199999809265137
9.375
9.125
9.25
9.600000381469727
9.175000190734863
9.449999809265137
9.175000190734863
9.300000190734863
9.425000190734863
9.274999618530273
9.300000190734863
9.375
9.350000381469727
9.100000381469727
9.300000190734863
9.074999809265137
9.074999809265137
9.300000190734863
9.324999809265137
9.074999809265137
8.925000190734863
9.300000190734863
9.25
9.300000190734863
9.050000190734863
9.475000381469727
9.024999618530273
9.149999618530273
9.274999618530273
9.25
9.199999809265137
8.975000381469727
9.225000381469727
9.300000190734863
9.300000190734863
9.300000190734863
9.149999618530273
9.324999809265137
9.375
9.475000381469727
9.399999618530273
9.199999809265137
9.425000190734863
9.149999618530273
9.149999618530273
9.25
9.399999618530273
9.350000381469727
9.300000190734863
9.324999809265137
9.074999809265137
9.5
9.274999618530273
9.074999809265137
9.300000190734863
9.125
9.625
9.199999809265137
9.399999618530273
9.350000381469727
9.149999618530273
9.425000190734863
9.175000190734863
9.399999618530273
9.399999618530273
9.375
9.225000381469727
9.25
9.25
9.550000190734863
9.149999618530273
9.100000381469727
9.350000381469727
9.25
9.125
9.274999618530273
9.399999618530273
9.350000381469727
9.274999618530273
9.350000381469727
9.425000190734863
9.300000190734863
9.375
9.324999809265137
9.300000190734863
9.274999618530273
9.324999809265137
9.649999618530273
9.375
9.100000381469727
9.175000190734863
9.324999809265137
9.550000190734863
9.375
9.5
9.375
9.324999809265137
9.324999809265137
9.300000190734863
9.425000190734863
9.449999809265137
9.350000381469727
9.524999618530273
9.199999809265137
9.399999618530273
9.350000381469727
9.25
9.300000190734863
9.300000190734863
9.425000190734863
9.324999809265137
9.350000381469727
9.25
9.475000381469727
9.350000381469727
9.274999618530273
9.300000190734863
9.100000381469727
9.5
9.524999618530273
9.524999618530273
9.350000381469727
9.25
9.449999809265137
9.475000381469727
9.425000190734863
9.100000381469727
9.199999809265137
9.375
9.25
9.475000381469727
9.425000190734863
9.225000381469727
9.399999618530273
9.300000190734863
9.324999809265137
9.449999809265137
9.300000190734863
9.524999618530273
9.324999809265137
9.300000190734863
9.425000190734863
9.375
9.324999809265137
9.399999618530273
9.375
9.550000190734863
9.375
9.550000190734863
9.375
9.350000381469727
9.0
9.675000190734863
9.324999809265137
9.425000190734863
9.350000381469727
9.399999618530273
9.375
9.399999618530273
9.225000381469727
9.425000190734863
9.324999809265137
9.375
9.399999618530273
9.274999618530273
9.25
9.449999809265137
9.175000190734863
9.125
9.149999618530273
9.5
9.199999809265137
9.149999618530273
9.199999809265137
9.199999809265137
9.149999618530273
8.899999618530273
9.175000190734863
9.449999809265137
9.375
9.149999618530273
9.375
9.074999809265137
9.324999809265137
9.225000381469727
9.125
8.925000190734863
9.350000381469727
9.324999809265137
9.5
9.425000190734863
9.225000381469727
9.274999618530273
9.25
9.25
9.199999809265137
9.425000190734863
9.324999809265137
9.350000381469727
9.300000190734863
9.300000190734863
9.425000190734863
9.25
9.25
9.25
9.300000190734863
9.449999809265137
9.225000381469727
9.324999809265137
9.475000381469727
9.449999809265137
9.475000381469727
9.300000190734863
9.449999809265137
9.350000381469727
9.475000381469727
9.449999809265137
9.25
9.274999618530273
9.625
9.449999809265137
9.449999809265137
9.274999618530273
9.550000190734863
9.100000381469727
9.274999618530273
9.375
9.350000381469727
9.524999618530273
9.475000381469727
9.675000190734863
9.350000381469727
9.600000381469727
9.550000190734863
9.274999618530273
9.449999809265137
9.449999809265137
9.425000190734863
9.5
9.375
9.375
9.175000190734863
9.475000381469727
9.300000190734863
9.225000381469727
9.399999618530273
9.449999809265137
9.475000381469727
9.5
9.300000190734863
9.300000190734863
9.375
9.199999809265137
9.199999809265137
9.550000190734863
9.550000190734863
9.25
9.25
9.399999618530273
9.425000190734863
9.274999618530273
9.225000381469727
9.225000381469727
9.475000381469727
9.25
9.399999618530273
9.225000381469727
9.300000190734863
9.399999618530273
9.350000381469727
9.600000381469727
9.274999618530273
9.274999618530273
9.375
9.25
9.375
9.425000190734863
9.550000190734863
9.199999809265137
9.5
9.300000190734863
9.199999809265137
9.350000381469727
9.425000190734863
9.449999809265137
9.524999618530273
9.300000190734863
9.399999618530273
9.225000381469727
9.225000381469727
9.175000190734863
9.175000190734863
9.300000190734863
9.199999809265137
9.074999809265137
9.149999618530273
9.125
9.024999618530273
9.175000190734863
9.050000190734863
9.199999809265137
9.024999618530273
9.350000381469727
9.324999809265137
9.324999809265137
9.074999809265137
9.225000381469727
9.475000381469727
9.399999618530273
9.524999618530273
9.324999809265137
9.050000190734863
9.274999618530273
9.399999618530273
9.449999809265137
9.375
9.425000190734863
9.375
9.25
9.300000190734863
9.175000190734863
