EpRewMean
0.004999999888241291
0.0625
0.007499999832361937
0.007499999832361937
0.03500000014901161
0.042500000447034836
0.18250000476837158
0.10249999910593033
0.11249999701976776
0.27000001072883606
0.13249999284744263
0.057500001043081284
0.19750000536441803
0.1550000011920929
0.22750000655651093
0.24250000715255737
0.4099999964237213
0.13750000298023224
0.2874999940395355
0.29249998927116394
0.27000001072883606
0.35749998688697815
0.3774999976158142
0.675000011920929
0.35749998688697815
0.5600000023841858
0.4350000023841858
0.550000011920929
0.4325000047683716
0.4375
0.39750000834465027
0.48750001192092896
0.3050000071525574
0.5699999928474426
0.6725000143051147
0.5824999809265137
0.6399999856948853
0.48500001430511475
0.6549999713897705
0.4074999988079071
0.6625000238418579
0.7400000095367432
0.75
0.5575000047683716
0.6625000238418579
0.5975000262260437
0.7925000190734863
0.5550000071525574
0.6075000166893005
0.4724999964237213
0.612500011920929
0.5375000238418579
0.42500001192092896
0.862500011920929
0.4074999988079071
0.47999998927116394
0.6200000047683716
0.5649999976158142
0.4449999928474426
0.5674999952316284
0.5350000262260437
0.6899999976158142
0.7099999785423279
0.7124999761581421
0.9925000071525574
0.6225000023841858
0.9649999737739563
1.0674999952316284
1.2200000286102295
1.284999966621399
1.315000057220459
1.8975000381469727
2.0225000381469727
2.047499895095825
2.637500047683716
2.7899999618530273
3.109999895095825
3.8924999237060547
3.7825000286102295
3.674999952316284
4.59499979019165
5.442500114440918
5.619999885559082
5.454999923706055
5.565000057220459
5.732500076293945
5.695000171661377
6.585000038146973
6.909999847412109
5.992499828338623
6.28000020980835
7.242499828338623
6.792500019073486
7.034999847412109
7.300000190734863
7.122499942779541
7.079999923706055
7.340000152587891
7.364999771118164
7.114999771118164
7.277500152587891
7.107500076293945
7.474999904632568
7.894999980926514
7.59499979019165
7.542500019073486
7.477499961853027
7.707499980926514
7.947500228881836
8.417499542236328
8.114999771118164
8.302499771118164
8.739999771118164
8.272500038146973
7.917500019073486
7.739999771118164
8.265000343322754
8.162500381469727
8.117500305175781
8.380000114440918
8.430000305175781
8.664999961853027
8.617500305175781
8.744999885559082
8.6899995803833
9.067500114440918
8.46500015258789
7.96750020980835
7.875
8.15250015258789
8.137499809265137
8.352499961853027
8.802499771118164
8.452500343322754
8.420000076293945
8.255000114440918
8.479999542236328
8.875
8.702500343322754
8.772500038146973
8.552499771118164
8.600000381469727
8.887499809265137
9.074999809265137
8.880000114440918
8.592499732971191
8.682499885559082
8.6274995803833
8.84749984741211
8.6899995803833
8.567500114440918
8.8100004196167
9.069999694824219
8.984999656677246
9.130000114440918
9.482500076293945
9.292499542236328
9.569999694824219
9.487500190734863
9.25
8.954999923706055
9.077500343322754
8.8100004196167
8.914999961853027
9.0649995803833
8.882499694824219
9.037500381469727
9.25
8.96500015258789
8.664999961853027
8.614999771118164
8.867500305175781
8.895000457763672
8.992500305175781
8.75
9.1850004196167
9.170000076293945
9.267499923706055
9.604999542236328
10.005000114440918
10.010000228881836
9.817500114440918
9.922499656677246
9.797499656677246
9.177499771118164
8.899999618530273
9.452500343322754
9.710000038146973
9.359999656677246
8.734999656677246
8.482500076293945
8.229999542236328
8.582500457763672
8.977499961853027
8.987500190734863
8.895000457763672
9.432499885559082
9.382499694824219
9.287500381469727
8.77750015258789
8.78499984741211
9.005000114440918
9.699999809265137
9.539999961853027
9.510000228881836
9.817500114440918
9.729999542236328
9.792499542236328
9.274999618530273
9.1899995803833
9.262499809265137
9.3774995803833
9.607500076293945
9.4399995803833
9.082500457763672
8.692500114440918
8.797499656677246
9.40999984741211
9.887499809265137
9.944999694824219
10.057499885559082
10.545000076293945
10.3125
9.875
9.619999885559082
9.612500190734863
9.9350004196167
9.977499961853027
9.805000305175781
8.557499885559082
8.232500076293945
8.157500267028809
8.149999618530273
8.3149995803833
8.9975004196167
8.6875
8.672499656677246
9.0
9.632499694824219
9.772500038146973
9.782500267028809
9.680000305175781
9.75
9.6225004196167
9.364999771118164
9.84000015258789
9.65999984741211
9.319999694824219
9.609999656677246
10.0649995803833
10.364999771118164
10.352499961853027
9.952500343322754
9.765000343322754
9.864999771118164
9.732500076293945
10.09000015258789
10.197500228881836
10.172499656677246
9.850000381469727
9.782500267028809
9.982500076293945
10.112500190734863
9.975000381469727
10.047499656677246
10.317500114440918
10.65999984741211
10.257499694824219
10.229999542236328
10.012499809265137
10.395000457763672
10.3725004196167
10.680000305175781
10.462499618530273
10.319999694824219
10.462499618530273
10.454999923706055
10.612500190734863
10.532500267028809
10.197500228881836
10.47249984741211
10.582500457763672
10.8125
10.5
10.422499656677246
10.177499771118164
10.399999618530273
10.819999694824219
11.057499885559082
10.899999618530273
10.792499542236328
10.7524995803833
10.890000343322754
10.920000076293945
10.837499618530273
10.670000076293945
10.515000343322754
10.677499771118164
10.579999923706055
10.477499961853027
10.399999618530273
10.319999694824219
10.3125
10.832500457763672
10.7524995803833
10.619999885559082
10.550000190734863
10.612500190734863
10.782500267028809
11.0649995803833
11.3125
10.930000305175781
11.022500038146973
10.944999694824219
10.489999771118164
9.717499732971191
8.984999656677246
9.010000228881836
9.100000381469727
9.262499809265137
9.407500267028809
9.704999923706055
9.994999885559082
9.949999809265137
9.957500457763672
10.077500343322754
9.9375
10.095000267028809
10.257499694824219
10.7475004196167
10.795000076293945
10.9375
10.8774995803833
10.53499984741211
10.1899995803833
10.15250015258789
10.467499732971191
10.537500381469727
10.462499618530273
10.734999656677246
10.579999923706055
10.5625
10.404999732971191
10.625
10.789999961853027
10.9375
10.904999732971191
10.704999923706055
11.010000228881836
11.032500267028809
10.75
10.422499656677246
10.3774995803833
10.397500038146973
10.635000228881836
10.837499618530273
10.967499732971191
10.657500267028809
10.442500114440918
10.172499656677246
10.3774995803833
10.492500305175781
10.850000381469727
10.987500190734863
10.805000305175781
10.829999923706055
10.979999542236328
11.0625
11.022500038146973
11.072500228881836
10.6225004196167
10.289999961853027
10.532500267028809
10.585000038146973
10.454999923706055
10.452500343322754
10.680000305175781
10.635000228881836
10.664999961853027
10.859999656677246
10.725000381469727
10.52750015258789
10.482500076293945
10.297499656677246
10.307499885559082
10.274999618530273
10.869999885559082
10.977499961853027
11.0600004196167
11.012499809265137
10.867500305175781
10.925000190734863
11.162500381469727
10.982500076293945
10.382499694824219
10.494999885559082
10.992500305175781
11.265000343322754
11.422499656677246
11.057499885559082
10.779999732971191
10.84749984741211
10.787500381469727
10.692500114440918
10.699999809265137
10.859999656677246
11.015000343322754
11.305000305175781
11.317500114440918
11.28499984741211
11.140000343322754
11.262499809265137
11.104999542236328
11.220000267028809
11.287500381469727
11.609999656677246
11.157500267028809
10.84000015258789
10.904999732971191
11.255000114440918
11.329999923706055
11.037500381469727
11.119999885559082
11.147500038146973
11.34749984741211
11.270000457763672
11.192500114440918
10.962499618530273
10.979999542236328
10.802499771118164
11.03499984741211
11.232500076293945
11.28499984741211
11.162500381469727
11.0649995803833
10.907500267028809
10.697500228881836
10.77750015258789
10.899999618530273
11.149999618530273
10.8774995803833
10.9350004196167
11.095000267028809
11.104999542236328
11.140000343322754
10.952500343322754
11.055000305175781
11.079999923706055
11.067500114440918
11.142499923706055
11.147500038146973
11.229999542236328
11.407500267028809
11.192500114440918
11.157500267028809
11.132499694824219
10.962499618530273
11.107500076293945
11.104999542236328
10.765000343322754
10.4350004196167
10.477499961853027
11.007499694824219
10.8725004196167
10.7475004196167
10.8125
10.65250015258789
10.742500305175781
10.697500228881836
10.952500343322754
10.420000076293945
10.390000343322754
10.460000038146973
10.885000228881836
11.227499961853027
11.092499732971191
11.425000190734863
11.297499656677246
11.229999542236328
11.055000305175781
10.912500381469727
11.055000305175781
10.982500076293945
10.882499694824219
11.0649995803833
11.279999732971191
11.364999771118164
11.420000076293945
11.510000228881836
11.505000114440918
11.130000114440918
10.899999618530273
10.857500076293945
11.092499732971191
11.574999809265137
11.432499885559082
11.292499542236328
11.369999885559082
11.725000381469727
11.702500343322754
11.194999694824219
11.109999656677246
11.197500228881836
11.3725004196167
11.5625
11.272500038146973
11.109999656677246
11.085000038146973
11.079999923706055
11.199999809265137
10.795000076293945
10.944999694824219
10.805000305175781
11.047499656677246
10.975000381469727
11.012499809265137
11.107500076293945
11.149999618530273
11.172499656677246
10.944999694824219
10.957500457763672
10.947500228881836
10.982500076293945
11.050000190734863
10.927499771118164
10.845000267028809
10.962499618530273
10.770000457763672
10.954999923706055
11.167499542236328
11.229999542236328
11.267499923706055
11.072500228881836
10.885000228881836
10.8125
10.914999961853027
11.267499923706055
11.255000114440918
11.272500038146973
11.15999984741211
11.244999885559082
11.042499542236328
10.857500076293945
11.232500076293945
11.34000015258789
11.274999618530273
11.182499885559082
11.354999542236328
11.03499984741211
11.145000457763672
11.0625
11.1875
10.625
10.835000038146973
10.755000114440918
11.332500457763672
11.47249984741211
11.5649995803833
11.2475004196167
11.385000228881836
11.65250015258789
11.454999923706055
11.524999618530273
11.042499542236328
11.1850004196167
11.012499809265137
11.095000267028809
11.1850004196167
11.3725004196167
11.167499542236328
11.3100004196167
11.425000190734863
11.492500305175781
11.492500305175781
11.1850004196167
10.7524995803833
10.359999656677246
10.442500114440918
10.617500305175781
10.800000190734863
11.047499656677246
10.992500305175781
10.664999961853027
10.765000343322754
10.977499961853027
11.279999732971191
11.447500228881836
11.475000381469727
11.362500190734863
11.359999656677246
11.15250015258789
11.425000190734863
11.295000076293945
11.3725004196167
11.297499656677246
11.4350004196167
11.182499885559082
11.4975004196167
11.425000190734863
11.444999694824219
11.47249984741211
11.539999961853027
11.462499618530273
11.017499923706055
11.145000457763672
11.007499694824219
11.095000267028809
11.069999694824219
11.420000076293945
11.34000015258789
11.40250015258789
11.3149995803833
11.414999961853027
11.029999732971191
10.807499885559082
10.875
10.96500015258789
11.15999984741211
10.895000457763672
10.899999618530273
10.827500343322754
11.444999694824219
11.305000305175781
11.272500038146973
11.177499771118164
11.257499694824219
11.40999984741211
11.3774995803833
11.2524995803833
11.194999694824219
11.229999542236328
11.057499885559082
11.100000381469727
11.217499732971191
10.957500457763672
10.907500267028809
10.914999961853027
11.137499809265137
11.079999923706055
11.167499542236328
11.182499885559082
11.470000267028809
11.572500228881836
11.414999961853027
10.9399995803833
11.037500381469727
11.34000015258789
11.4975004196167
11.4350004196167
11.239999771118164
11.292499542236328
11.482500076293945
11.305000305175781
10.922499656677246
10.967499732971191
11.329999923706055
11.34749984741211
11.175000190734863
11.164999961853027
10.869999885559082
11.0600004196167
10.859999656677246
11.47249984741211
11.630000114440918
11.807499885559082
11.662500381469727
11.482500076293945
11.359999656677246
11.3100004196167
11.582500457763672
11.569999694824219
11.557499885559082
11.632499694824219
11.6225004196167
11.582500457763672
11.682499885559082
11.9975004196167
11.727499961853027
11.414999961853027
11.227499961853027
11.354999542236328
11.2524995803833
10.912500381469727
11.272500038146973
11.329999923706055
11.327500343322754
11.482500076293945
11.467499732971191
11.632499694824219
11.582500457763672
11.3774995803833
11.082500457763672
11.397500038146973
11.555000305175781
11.654999732971191
11.5024995803833
11.452500343322754
11.270000457763672
11.3100004196167
11.220000267028809
11.007499694824219
11.095000267028809
11.319999694824219
11.3725004196167
11.125
11.162500381469727
11.265000343322754
11.229999542236328
11.117500305175781
10.975000381469727
11.180000305175781
11.137499809265137
11.172499656677246
11.317500114440918
11.3725004196167
11.614999771118164
11.5600004196167
11.672499656677246
11.47249984741211
11.602499961853027
11.585000038146973
11.694999694824219
11.680000305175781
11.53499984741211
11.239999771118164
11.03499984741211
11.2524995803833
11.047499656677246
11.154999732971191
11.420000076293945
11.7475004196167
11.869999885559082
11.657500267028809
11.582500457763672
11.460000038146973
11.422499656677246
11.270000457763672
11.167499542236328
11.045000076293945
11.149999618530273
11.140000343322754
11.322500228881836
11.234999656677246
11.397500038146973
11.345000267028809
11.484999656677246
11.300000190734863
11.107500076293945
11.3100004196167
11.5024995803833
11.34000015258789
11.34749984741211
11.307499885559082
11.337499618530273
11.125
11.225000381469727
10.739999771118164
10.977499961853027
11.032500267028809
10.9399995803833
11.1225004196167
11.475000381469727
11.72249984741211
11.425000190734863
11.327500343322754
11.489999771118164
11.59749984741211
11.5
11.380000114440918
11.407500267028809
11.307499885559082
11.03499984741211
11.274999618530273
11.680000305175781
11.467499732971191
11.102499961853027
10.827500343322754
11.202500343322754
11.484999656677246
11.422499656677246
11.237500190734863
11.109999656677246
11.09000015258789
11.164999961853027
11.302499771118164
11.390000343322754
11.335000038146973
11.427499771118164
11.292499542236328
11.53499984741211
11.512499809265137
11.557499885559082
11.607500076293945
11.895000457763672
11.682499885559082
11.470000267028809
11.382499694824219
11.602499961853027
11.664999961853027
11.6850004196167
11.592499732971191
11.770000457763672
11.602499961853027
11.452500343322754
11.364999771118164
11.737500190734863
11.557499885559082
11.729999542236328
11.72249984741211
11.682499885559082
11.962499618530273
11.782500267028809
11.817500114440918
11.59000015258789
11.567500114440918
11.359999656677246
11.53499984741211
11.694999694824219
11.832500457763672
11.697500228881836
11.4975004196167
11.300000190734863
11.329999923706055
11.180000305175781
11.265000343322754
11.327500343322754
11.569999694824219
11.352499961853027
11.417499542236328
11.295000076293945
11.342499732971191
11.117500305175781
11.5649995803833
11.670000076293945
11.800000190734863
11.510000228881836
11.692500114440918
11.760000228881836
11.767499923706055
11.8125
11.904999732971191
11.770000457763672
11.649999618530273
11.600000381469727
11.670000076293945
11.7524995803833
11.885000228881836
11.727499961853027
11.725000381469727
11.592499732971191
11.452500343322754
11.512499809265137
11.475000381469727
11.2524995803833
11.577500343322754
11.542499542236328
11.59000015258789
11.602499961853027
11.417499542236328
11.1850004196167
11.225000381469727
11.510000228881836
11.180000305175781
11.225000381469727
11.395000457763672
11.457500457763672
11.635000228881836
11.662500381469727
11.887499809265137
11.585000038146973
11.6899995803833
11.657500267028809
11.8149995803833
11.667499542236328
11.52750015258789
11.487500190734863
11.617500305175781
11.454999923706055
11.375
11.524999618530273
11.697500228881836
11.827500343322754
11.854999542236328
11.907500267028809
11.875
11.625
11.5600004196167
11.354999542236328
11.390000343322754
11.46500015258789
11.577500343322754
11.739999771118164
11.52750015258789
11.422499656677246
11.407500267028809
11.699999809265137
11.827500343322754
11.930000305175781
11.960000038146973
11.632499694824219
11.59000015258789
11.492500305175781
11.512499809265137
11.364999771118164
11.262499809265137
11.142499923706055
11.4350004196167
11.694999694824219
11.992500305175781
11.744999885559082
11.5649995803833
11.574999809265137
11.712499618530273
11.482500076293945
11.6850004196167
11.607500076293945
11.727499961853027
11.550000190734863
11.617500305175781
11.765000343322754
11.765000343322754
11.8149995803833
11.832500457763672
11.550000190734863
11.47249984741211
11.432499885559082
11.625
11.867500305175781
11.822500228881836
11.97249984741211
12.0625
11.885000228881836
11.800000190734863
11.7524995803833
11.737500190734863
11.732500076293945
11.537500381469727
11.375
11.172499656677246
11.024999618530273
11.107500076293945
11.154999732971191
11.547499656677246
11.510000228881836
11.447500228881836
11.420000076293945
11.322500228881836
11.520000457763672
11.444999694824219
11.6850004196167
11.53499984741211
11.7475004196167
11.369999885559082
11.517499923706055
11.845000267028809
12.050000190734863
12.052499771118164
11.952500343322754
11.864999771118164
11.962499618530273
11.84000015258789
11.587499618530273
11.462499618530273
11.692500114440918
11.732500076293945
11.574999809265137
11.460000038146973
11.577500343322754
11.460000038146973
11.5649995803833
11.837499618530273
11.529999732971191
11.612500190734863
11.595000267028809
11.887499809265137
11.84749984741211
11.692500114440918
11.6274995803833
11.675000190734863
11.710000038146973
11.6850004196167
11.694999694824219
11.592499732971191
11.3149995803833
11.470000267028809
11.512499809265137
11.175000190734863
11.202500343322754
11.324999809265137
11.479999542236328
11.59749984741211
11.677499771118164
11.619999885559082
11.167499542236328
11.22249984741211
11.170000076293945
11.614999771118164
11.707500457763672
11.71500015258789
11.850000381469727
11.875
11.670000076293945
11.710000038146973
11.819999694824219
11.942500114440918
11.737500190734863
11.817500114440918
11.762499809265137
11.774999618530273
11.732500076293945
11.835000038146973
11.667499542236328
11.842499732971191
11.602499961853027
11.430000305175781
11.454999923706055
11.640000343322754
11.767499923706055
11.612500190734863
11.52750015258789
11.430000305175781
11.614999771118164
11.59000015258789
11.770000457763672
11.4975004196167
11.789999961853027
11.765000343322754
11.779999732971191
11.642499923706055
11.520000457763672
11.607500076293945
11.8149995803833
11.895000457763672
11.857500076293945
11.604999542236328
11.609999656677246
11.47249984741211
11.602499961853027
11.819999694824219
11.725000381469727
11.720000267028809
11.52750015258789
11.477499961853027
11.447500228881836
11.614999771118164
11.59000015258789
11.3774995803833
11.407500267028809
11.5649995803833
11.789999961853027
11.942500114440918
11.982500076293945
11.954999923706055
11.737500190734863
11.65250015258789
11.770000457763672
11.760000228881836
11.65999984741211
11.380000114440918
11.244999885559082
11.395000457763672
11.739999771118164
12.107500076293945
12.072500228881836
11.922499656677246
11.552499771118164
11.382499694824219
11.382499694824219
11.442500114440918
11.454999923706055
11.375
11.5600004196167
11.4975004196167
11.59000015258789
11.864999771118164
12.057499885559082
12.024999618530273
11.912500381469727
11.545000076293945
11.595000267028809
11.542499542236328
11.479999542236328
11.569999694824219
11.699999809265137
11.702500343322754
11.4399995803833
11.442500114440918
11.59749984741211
11.8725004196167
11.899999618530273
11.712499618530273
11.702500343322754
11.765000343322754
11.917499542236328
12.0024995803833
11.9350004196167
11.9375
11.7475004196167
11.462499618530273
11.34749984741211
11.617500305175781
11.760000228881836
12.265000343322754
11.927499771118164
11.797499656677246
11.592499732971191
11.672499656677246
11.854999542236328
11.84000015258789
11.677499771118164
11.572500228881836
11.642499923706055
11.895000457763672
11.869999885559082
11.720000267028809
11.397500038146973
11.317500114440918
11.3725004196167
11.672499656677246
11.640000343322754
11.592499732971191
11.40999984741211
11.359999656677246
11.667499542236328
11.744999885559082
11.787500381469727
11.744999885559082
11.522500038146973
11.585000038146973
11.517499923706055
11.555000305175781
11.6899995803833
11.880000114440918
11.795000076293945
11.824999809265137
11.867500305175781
11.875
11.772500038146973
11.72249984741211
11.7475004196167
11.827500343322754
11.587499618530273
11.829999923706055
11.925000190734863
12.1850004196167
12.225000381469727
12.21500015258789
12.3774995803833
12.204999923706055
12.085000038146973
11.857500076293945
11.720000267028809
11.90999984741211
11.654999732971191
11.699999809265137
11.970000267028809
11.890000343322754
11.779999732971191
11.505000114440918
11.507499694824219
11.364999771118164
11.287500381469727
11.3774995803833
11.479999542236328
11.614999771118164
11.614999771118164
11.890000343322754
11.84749984741211
11.822500228881836
11.545000076293945
11.447500228881836
11.517499923706055
11.807499885559082
11.609999656677246
11.725000381469727
11.734999656677246
11.765000343322754
11.805000305175781
11.827500343322754
11.975000381469727
11.767499923706055
11.520000457763672
11.6850004196167
11.707500457763672
11.587499618530273
11.289999961853027
11.260000228881836
11.555000305175781
11.899999618530273
11.9975004196167
11.992500305175781
11.765000343322754
12.0
11.845000267028809
11.837499618530273
11.510000228881836
11.677499771118164
11.829999923706055
11.859999656677246
11.702500343322754
11.635000228881836
11.529999732971191
11.8125
11.885000228881836
11.852499961853027
11.96500015258789
11.819999694824219
12.052499771118164
11.8725004196167
11.942500114440918
11.725000381469727
11.317500114440918
10.864999771118164
11.069999694824219
11.154999732971191
11.045000076293945
10.967499732971191
10.954999923706055
11.457500457763672
11.742500305175781
11.859999656677246
11.822500228881836
11.727499961853027
11.792499542236328
11.817500114440918
11.787500381469727
11.729999542236328
11.84749984741211
11.845000267028809
11.882499694824219
11.739999771118164
11.727499961853027
11.734999656677246
11.772500038146973
11.890000343322754
11.84749984741211
11.772500038146973
11.704999923706055
11.667499542236328
11.467499732971191
11.46500015258789
11.567500114440918
11.720000267028809
11.494999885559082
11.732500076293945
11.494999885559082
11.710000038146973
11.987500190734863
11.789999961853027
11.430000305175781
11.135000228881836
11.322500228881836
11.577500343322754
11.507499694824219
11.457500457763672
11.452500343322754
11.932499885559082
12.119999885559082
12.010000228881836
11.734999656677246
11.65250015258789
11.680000305175781
11.767499923706055
12.03499984741211
12.102499961853027
11.887499809265137
11.537500381469727
11.467499732971191
11.795000076293945
11.8100004196167
11.692500114440918
11.824999809265137
11.822500228881836
12.1850004196167
12.212499618530273
12.204999923706055
11.914999961853027
11.767499923706055
11.452500343322754
11.704999923706055
11.84749984741211
12.117500305175781
12.270000457763672
12.345000267028809
11.992500305175781
11.742500305175781
11.717499732971191
11.414999961853027
11.572500228881836
11.90250015258789
11.989999771118164
11.882499694824219
11.75
11.862500190734863
11.582500457763672
11.635000228881836
11.479999542236328
11.717499732971191
12.132499694824219
12.135000228881836
11.912500381469727
11.822500228881836
11.800000190734863
11.930000305175781
12.0024995803833
11.979999542236328
12.104999542236328
12.132499694824219
12.145000457763672
11.9350004196167
12.177499771118164
12.162500381469727
11.987500190734863
11.907500267028809
11.762499809265137
11.742500305175781
11.957500457763672
11.9350004196167
11.992500305175781
11.892499923706055
11.947500228881836
11.882499694824219
11.925000190734863
12.055000305175781
12.0625
12.012499809265137
12.024999618530273
12.137499809265137
11.789999961853027
11.59000015258789
11.529999732971191
11.395000457763672
11.392499923706055
11.2475004196167
11.404999732971191
11.017499923706055
11.087499618530273
11.029999732971191
11.25
11.3774995803833
11.65250015258789
11.729999542236328
11.664999961853027
11.744999885559082
11.920000076293945
12.020000457763672
11.677499771118164
11.765000343322754
11.6899995803833
11.819999694824219
11.755000114440918
11.869999885559082
11.835000038146973
11.467499732971191
11.489999771118164
11.350000381469727
11.369999885559082
11.595000267028809
11.829999923706055
11.967499732971191
11.922499656677246
11.5625
11.460000038146973
11.517499923706055
11.6274995803833
11.760000228881836
11.817500114440918
11.832500457763672
11.947500228881836
11.854999542236328
11.957500457763672
11.75
12.069999694824219
11.9399995803833
11.8100004196167
11.630000114440918
11.977499961853027
12.029999732971191
12.079999923706055
11.887499809265137
11.960000038146973
11.992500305175781
12.039999961853027
12.02750015258789
11.885000228881836
11.737500190734863
11.867500305175781
11.8149995803833
11.600000381469727
11.609999656677246
11.78499984741211
11.912500381469727
11.832500457763672
12.052499771118164
11.992500305175781
12.077500343322754
11.962499618530273
11.862500190734863
11.755000114440918
11.600000381469727
11.572500228881836
11.765000343322754
12.149999618530273
12.15250015258789
12.022500038146973
11.760000228881836
11.827500343322754
12.007499694824219
11.767499923706055
11.65250015258789
11.762499809265137
11.927499771118164
11.949999809265137
11.852499961853027
11.852499961853027
11.9350004196167
11.907500267028809
11.837499618530273
11.837499618530273
11.970000267028809
12.039999961853027
12.175000190734863
11.967499732971191
11.970000267028809
11.917499542236328
12.015000343322754
11.982500076293945
11.967499732971191
12.0
12.079999923706055
11.907500267028809
11.727499961853027
11.892499923706055
12.050000190734863
12.1274995803833
11.854999542236328
12.092499732971191
12.175000190734863
12.382499694824219
11.930000305175781
11.947500228881836
11.755000114440918
12.055000305175781
11.824999809265137
11.7475004196167
11.765000343322754
11.8774995803833
11.72249984741211
11.859999656677246
12.052499771118164
12.0600004196167
12.142499923706055
11.989999771118164
11.932499885559082
11.960000038146973
11.977499961853027
11.8100004196167
11.829999923706055
12.0600004196167
12.170000076293945
12.082500457763672
12.012499809265137
11.949999809265137
11.787500381469727
11.8774995803833
12.02750015258789
12.142499923706055
11.975000381469727
11.885000228881836
11.837499618530273
11.829999923706055
11.970000267028809
12.0024995803833
11.875
12.02750015258789
12.055000305175781
11.957500457763672
11.952500343322754
11.952500343322754
11.979999542236328
12.114999771118164
12.024999618530273
12.037500381469727
11.832500457763672
11.587499618530273
11.477499961853027
11.510000228881836
11.702500343322754
11.824999809265137
11.787500381469727
11.697500228881836
11.797499656677246
11.975000381469727
12.032500267028809
11.77750015258789
11.8100004196167
11.892499923706055
11.927499771118164
11.962499618530273
11.960000038146973
11.899999618530273
11.797499656677246
11.887499809265137
11.957500457763672
11.8149995803833
11.9350004196167
12.112500190734863
12.207500457763672
12.117500305175781
11.8774995803833
12.032500267028809
11.9350004196167
11.920000076293945
11.912500381469727
11.859999656677246
12.0
12.15250015258789
11.9975004196167
12.042499542236328
12.210000038146973
12.28499984741211
12.0625
11.837499618530273
11.952500343322754
12.125
12.055000305175781
