EpRewMean
0.375
2.8518519401550293
2.9725000858306885
3.184999942779541
3.049999952316284
2.9749999046325684
3.127500057220459
3.0299999713897705
3.0850000381469727
3.3125
3.242500066757202
3.1524999141693115
3.0824999809265137
3.450000047683716
3.549999952316284
3.637500047683716
3.4549999237060547
3.297499895095825
3.1675000190734863
3.067500114440918
3.265000104904175
3.255000114440918
3.0850000381469727
3.0975000858306885
3.125
3.0250000953674316
2.984999895095825
3.252500057220459
3.4549999237060547
3.369999885559082
2.9725000858306885
2.827500104904175
2.887500047683716
2.640000104904175
2.7174999713897705
3.0399999618530273
3.247499942779541
3.307499885559082
3.059999942779541
3.4100000858306885
3.765000104904175
3.5350000858306885
3.3424999713897705
3.2925000190734863
3.4175000190734863
3.3399999141693115
3.180000066757202
3.2725000381469727
3.377500057220459
3.5174999237060547
3.377500057220459
3.119999885559082
3.2699999809265137
3.552500009536743
3.5225000381469727
3.3424999713897705
3.0824999809265137
3.140000104904175
3.119999885559082
3.1024999618530273
2.865000009536743
2.9649999141693115
3.007499933242798
2.890000104904175
3.1024999618530273
3.002500057220459
3.1024999618530273
3.447499990463257
3.5350000858306885
3.5399999618530273
3.512500047683716
3.567500114440918
3.622499942779541
3.759999990463257
3.737499952316284
3.880000114440918
3.737499952316284
3.632499933242798
3.6500000953674316
3.9124999046325684
4.147500038146973
4.037499904632568
3.7274999618530273
3.7100000381469727
3.6449999809265137
3.4700000286102295
3.507499933242798
3.575000047683716
3.4649999141693115
3.4825000762939453
3.309999942779541
3.4625000953674316
3.4649999141693115
3.609999895095825
3.6500000953674316
3.5924999713897705
3.434999942779541
3.365000009536743
3.4075000286102295
3.424999952316284
3.625
3.744999885559082
3.819999933242798
4.090000152587891
4.292500019073486
4.202499866485596
4.074999809265137
4.175000190734863
4.364999771118164
4.175000190734863
4.010000228881836
3.819999933242798
4.010000228881836
4.144999980926514
4.142499923706055
4.184999942779541
3.984999895095825
4.0
4.335000038146973
4.40500020980835
4.367499828338623
4.402500152587891
4.125
4.087500095367432
4.302499771118164
4.385000228881836
4.289999961853027
4.09499979019165
4.230000019073486
4.315000057220459
4.369999885559082
4.177499771118164
4.340000152587891
4.545000076293945
4.289999961853027
4.295000076293945
4.192500114440918
4.300000190734863
4.237500190734863
4.452499866485596
4.447500228881836
4.257500171661377
4.295000076293945
4.182499885559082
4.192500114440918
4.162499904632568
4.135000228881836
3.825000047683716
3.8975000381469727
4.005000114440918
4.107500076293945
4.25
4.119999885559082
4.112500190734863
4.21999979019165
4.267499923706055
4.077499866485596
4.179999828338623
4.320000171661377
4.46999979019165
4.507500171661377
4.369999885559082
4.412499904632568
4.605000019073486
4.662499904632568
4.487500190734863
4.557499885559082
4.632500171661377
4.587500095367432
4.637499809265137
4.772500038146973
4.722499847412109
4.605000019073486
4.517499923706055
4.367499828338623
4.427499771118164
4.292500019073486
4.387499809265137
4.482500076293945
4.662499904632568
4.692500114440918
4.724999904632568
4.617499828338623
4.287499904632568
4.195000171661377
4.207499980926514
4.210000038146973
4.320000171661377
4.347499847412109
4.567500114440918
4.712500095367432
4.574999809265137
4.602499961853027
4.432499885559082
4.34499979019165
4.382500171661377
4.695000171661377
4.739999771118164
4.902500152587891
5.1875
5.315000057220459
5.175000190734863
5.117499828338623
5.057499885559082
4.849999904632568
4.764999866485596
5.045000076293945
4.977499961853027
5.119999885559082
5.275000095367432
5.505000114440918
5.337500095367432
5.097499847412109
5.119999885559082
5.107500076293945
5.050000190734863
5.420000076293945
5.574999809265137
5.364999771118164
5.175000190734863
5.237500190734863
5.34250020980835
5.21750020980835
5.090000152587891
5.28000020980835
5.494999885559082
5.320000171661377
5.389999866485596
5.512499809265137
5.695000171661377
5.585000038146973
5.522500038146973
5.182499885559082
4.974999904632568
4.840000152587891
4.862500190734863
4.989999771118164
5.242499828338623
5.252500057220459
5.28000020980835
5.099999904632568
5.125
5.302499771118164
5.670000076293945
5.807499885559082
5.755000114440918
5.945000171661377
5.820000171661377
5.772500038146973
5.710000038146973
5.742499828338623
5.599999904632568
5.744999885559082
5.610000133514404
5.445000171661377
5.625
5.659999847412109
6.050000190734863
5.570000171661377
5.287499904632568
5.25
5.90500020980835
6.170000076293945
5.985000133514404
6.085000038146973
6.022500038146973
6.232500076293945
6.367499828338623
6.597499847412109
6.477499961853027
6.627500057220459
6.527500152587891
6.610000133514404
6.625
6.724999904632568
6.847499847412109
6.922500133514404
6.929999828338623
6.974999904632568
7.010000228881836
7.017499923706055
6.992499828338623
6.670000076293945
6.84499979019165
7.085000038146973
7.412499904632568
7.642499923706055
7.554999828338623
7.042500019073486
6.894999980926514
7.230000019073486
7.582499980926514
7.84250020980835
7.675000190734863
7.40500020980835
7.614999771118164
8.114999771118164
8.427499771118164
8.710000038146973
8.324999809265137
7.982500076293945
7.90749979019165
7.605000019073486
7.550000190734863
7.460000038146973
7.582499980926514
7.599999904632568
8.449999809265137
8.477499961853027
8.4375
8.489999771118164
8.267499923706055
8.704999923706055
8.542499542236328
8.367500305175781
8.022500038146973
7.909999847412109
7.769999980926514
7.695000171661377
7.650000095367432
7.454999923706055
7.452499866485596
7.510000228881836
7.534999847412109
8.050000190734863
8.112500190734863
8.2475004196167
8.232500076293945
8.3125
8.322500228881836
8.520000457763672
8.539999961853027
8.392499923706055
8.46500015258789
7.96999979019165
7.597499847412109
7.472499847412109
7.547500133514404
7.96750020980835
7.9375
8.307499885559082
8.532500267028809
8.460000038146973
8.5
8.5649995803833
8.102499961853027
8.274999618530273
8.479999542236328
8.130000114440918
8.319999694824219
8.375
8.067500114440918
8.414999961853027
7.752500057220459
7.787499904632568
7.925000190734863
7.650000095367432
7.949999809265137
8.447500228881836
8.75
8.757499694824219
8.682499885559082
8.232500076293945
7.894999980926514
8.055000305175781
8.107500076293945
8.649999618530273
8.630000114440918
8.484999656677246
8.470000267028809
8.09000015258789
8.432499885559082
8.845000267028809
8.949999809265137
9.024999618530273
8.592499732971191
8.414999961853027
8.595000267028809
8.494999885559082
8.932499885559082
9.192500114440918
9.207500457763672
9.154999732971191
8.9350004196167
8.859999656677246
8.454999923706055
8.412500381469727
8.579999923706055
8.364999771118164
8.635000228881836
8.712499618530273
8.647500038146973
8.369999885559082
7.885000228881836
8.542499542236328
8.452500343322754
8.734999656677246
8.779999732971191
8.4375
8.507499694824219
8.34749984741211
8.720000267028809
8.734999656677246
8.609999656677246
8.694999694824219
8.345000267028809
8.307499885559082
8.425000190734863
8.194999694824219
8.829999923706055
9.305000305175781
9.602499961853027
10.079999923706055
9.8149995803833
9.765000343322754
9.322500228881836
9.3125
9.352499961853027
9.307499885559082
9.225000381469727
9.524999618530273
9.757499694824219
9.704999923706055
9.592499732971191
9.887499809265137
9.7524995803833
9.9375
10.192500114440918
10.300000190734863
10.602499961853027
10.632499694824219
10.457500457763672
10.640000343322754
10.677499771118164
10.3125
10.727499961853027
10.75
10.399999618530273
10.1274995803833
10.147500038146973
9.892499923706055
9.914999961853027
10.895000457763672
10.545000076293945
10.807499885559082
10.617500305175781
10.470000267028809
10.555000305175781
10.332500457763672
11.09749984741211
11.109999656677246
11.767499923706055
11.977499961853027
11.392499923706055
11.207500457763672
11.077500343322754
10.585000038146973
10.512499809265137
10.5600004196167
10.829999923706055
10.862500190734863
10.505000114440918
10.6225004196167
10.234999656677246
10.107500076293945
10.172499656677246
10.327500343322754
10.467499732971191
10.987500190734863
11.182499885559082
11.6899995803833
11.647500038146973
11.732500076293945
11.100000381469727
11.494999885559082
11.3100004196167
11.512499809265137
12.012499809265137
11.882499694824219
11.737500190734863
11.725000381469727
11.46500015258789
11.569999694824219
11.547499656677246
11.03499984741211
10.582500457763672
10.332500457763672
10.667499542236328
11.432499885559082
11.637499809265137
12.295000076293945
11.869999885559082
11.71500015258789
11.53499984741211
11.5600004196167
11.817500114440918
11.697500228881836
11.702500343322754
12.149999618530273
11.772500038146973
11.532500267028809
11.569999694824219
12.207500457763672
12.074999809265137
12.297499656677246
12.305000305175781
12.364999771118164
12.484999656677246
12.114999771118164
12.34749984741211
12.59749984741211
12.604999542236328
13.1899995803833
12.882499694824219
13.295000076293945
13.619999885559082
12.987500190734863
13.524999618530273
13.102499961853027
12.4399995803833
12.727499961853027
12.742500305175781
12.557499885559082
13.017499923706055
13.529999732971191
13.702500343322754
14.029999732971191
14.282500267028809
14.4350004196167
15.210000038146973
14.680000305175781
14.369999885559082
13.292499542236328
12.447500228881836
12.789999961853027
13.079999923706055
13.984999656677246
14.757499694824219
15.202500343322754
15.375
15.529999732971191
14.767499923706055
14.055000305175781
13.77750015258789
13.404999732971191
13.875
13.852499961853027
13.557499885559082
13.140000343322754
13.454999923706055
13.300000190734863
13.140000343322754
13.15250015258789
12.805000305175781
12.875
12.585000038146973
13.345000267028809
13.604999542236328
14.47249984741211
15.095000267028809
14.6850004196167
14.3100004196167
13.792499542236328
14.46500015258789
14.5
14.59749984741211
14.770000457763672
14.920000076293945
14.3725004196167
14.40250015258789
14.387499809265137
14.109999656677246
14.1899995803833
14.135000228881836
14.02750015258789
13.414999961853027
13.414999961853027
13.267499923706055
12.827500343322754
13.095000267028809
13.279999732971191
13.867500305175781
14.042499542236328
14.3125
14.694999694824219
14.302499771118164
13.649999618530273
13.462499618530273
13.8725004196167
13.875
13.762499809265137
14.574999809265137
14.022500038146973
13.862500190734863
14.109999656677246
13.979999542236328
14.057499885559082
14.069999694824219
13.975000381469727
14.085000038146973
13.852499961853027
14.460000038146973
14.390000343322754
14.332500457763672
14.5024995803833
14.510000228881836
14.787500381469727
14.354999542236328
14.97249984741211
15.077500343322754
14.957500457763672
14.710000038146973
14.085000038146973
13.97249984741211
13.6225004196167
13.672499656677246
13.8125
13.287500381469727
13.595000267028809
13.5649995803833
13.635000228881836
14.047499656677246
14.047499656677246
13.720000267028809
14.039999961853027
14.147500038146973
14.647500038146973
14.967499732971191
14.824999809265137
14.8725004196167
14.612500190734863
14.4375
14.212499618530273
14.162500381469727
14.6274995803833
14.09749984741211
14.382499694824219
13.970000267028809
13.930000305175781
14.357500076293945
14.162500381469727
14.994999885559082
14.532500267028809
14.555000305175781
14.322500228881836
14.317500114440918
14.515000343322754
14.587499618530273
14.572500228881836
14.710000038146973
14.5649995803833
14.357500076293945
14.182499885559082
14.232500076293945
14.414999961853027
14.710000038146973
14.579999923706055
14.670000076293945
14.757499694824219
14.614999771118164
14.795000076293945
14.97249984741211
14.59749984741211
14.755000114440918
14.359999656677246
14.404999732971191
14.797499656677246
15.022500038146973
15.142499923706055
15.182499885559082
14.822500228881836
14.632499694824219
14.717499732971191
14.367500305175781
14.079999923706055
14.005000114440918
13.225000381469727
13.167499542236328
13.352499961853027
13.397500038146973
13.712499618530273
13.899999618530273
14.147500038146973
13.645000457763672
14.192500114440918
14.367500305175781
14.182499885559082
14.779999732971191
15.3774995803833
15.46500015258789
14.989999771118164
14.887499809265137
14.4399995803833
14.197500228881836
14.795000076293945
15.569999694824219
15.8149995803833
16.172500610351562
15.6899995803833
14.7524995803833
14.97249984741211
14.882499694824219
14.692500114440918
14.582500457763672
14.547499656677246
14.279999732971191
15.057499885559082
15.0600004196167
15.0
15.4399995803833
14.875
14.680000305175781
15.045000076293945
15.412500381469727
15.289999961853027
15.53499984741211
15.6274995803833
15.585000038146973
15.239999771118164
15.592499732971191
15.614999771118164
14.90999984741211
14.9975004196167
14.607500076293945
13.760000228881836
14.4399995803833
14.307499885559082
14.274999618530273
14.324999809265137
14.100000381469727
14.317500114440918
14.012499809265137
14.072500228881836
14.4375
14.427499771118164
14.59749984741211
14.774999618530273
14.46500015258789
14.585000038146973
14.529999732971191
14.40999984741211
14.375
14.757499694824219
15.267499923706055
15.4375
15.225000381469727
15.300000190734863
14.895000457763672
14.957500457763672
14.742500305175781
14.657500267028809
14.680000305175781
14.647500038146973
14.617500305175781
14.007499694824219
14.024999618530273
14.782500267028809
14.824999809265137
15.0
14.899999618530273
14.407500267028809
14.4375
15.047499656677246
15.104999542236328
15.197500228881836
14.96500015258789
14.237500190734863
14.595000267028809
15.837499618530273
16.09000015258789
15.895000457763672
15.8125
15.350000381469727
15.0625
15.362500190734863
14.892499923706055
14.84000015258789
14.512499809265137
14.162500381469727
14.835000038146973
14.862500190734863
14.864999771118164
15.675000190734863
15.6225004196167
15.3149995803833
15.507499694824219
15.992500305175781
15.067500114440918
15.522500038146973
15.4350004196167
14.912500381469727
15.15999984741211
14.947500228881836
14.692500114440918
15.467499732971191
15.507499694824219
15.34749984741211
15.342499732971191
15.125
14.572500228881836
14.22249984741211
14.2475004196167
14.420000076293945
14.637499809265137
15.112500190734863
15.295000076293945
15.569999694824219
15.8725004196167
15.817500114440918
15.432499885559082
15.175000190734863
15.142499923706055
15.28499984741211
15.024999618530273
15.397500038146973
15.350000381469727
14.767499923706055
14.72249984741211
15.119999885559082
15.542499542236328
15.220000267028809
15.667499542236328
15.807499885559082
15.635000228881836
15.957500457763672
15.944999694824219
15.229999542236328
14.854999542236328
14.992500305175781
15.164999961853027
15.270000457763672
15.452500343322754
15.167499542236328
14.837499618530273
14.897500038146973
14.34000015258789
14.399999618530273
14.5024995803833
14.949999809265137
15.194999694824219
15.385000228881836
15.699999809265137
14.977499961853027
15.342499732971191
15.607500076293945
15.114999771118164
15.452500343322754
15.005000114440918
14.607500076293945
15.140000343322754
14.787500381469727
14.617500305175781
15.404999732971191
15.042499542236328
14.904999732971191
15.22249984741211
15.042499542236328
14.922499656677246
14.319999694824219
14.630000114440918
14.492500305175781
14.454999923706055
14.717499732971191
14.300000190734863
14.927499771118164
14.914999961853027
14.717499732971191
14.779999732971191
14.447500228881836
15.125
15.045000076293945
14.8725004196167
14.470000267028809
14.260000228881836
14.710000038146973
14.827500343322754
15.114999771118164
14.9975004196167
14.382499694824219
14.7475004196167
14.75
15.350000381469727
15.407500267028809
15.787500381469727
15.4375
15.532500267028809
15.050000190734863
14.5649995803833
14.487500190734863
14.449999809265137
14.699999809265137
14.625
14.617500305175781
14.532500267028809
14.859999656677246
14.425000190734863
14.72249984741211
15.03499984741211
15.297499656677246
16.184999465942383
15.635000228881836
14.9399995803833
14.925000190734863
14.28499984741211
13.8149995803833
15.055000305175781
15.864999771118164
15.704999923706055
15.822500228881836
14.982500076293945
14.967499732971191
15.232500076293945
15.114999771118164
15.9975004196167
15.757499694824219
15.539999961853027
15.5625
15.680000305175781
15.130000114440918
15.6899995803833
15.595000267028809
15.479999542236328
15.487500190734863
14.895000457763672
15.255000114440918
15.332500457763672
15.217499732971191
15.132499694824219
14.717499732971191
14.457500457763672
14.699999809265137
14.579999923706055
14.892499923706055
14.742500305175781
14.717499732971191
14.087499618530273
14.367500305175781
14.307499885559082
14.180000305175781
14.300000190734863
14.399999618530273
14.382499694824219
14.819999694824219
14.507499694824219
14.380000114440918
14.630000114440918
15.482500076293945
15.52750015258789
15.592499732971191
15.375
14.987500190734863
14.4375
14.90250015258789
15.529999732971191
15.47249984741211
16.137500762939453
16.040000915527344
15.744999885559082
15.119999885559082
15.170000076293945
15.017499923706055
14.539999961853027
15.199999809265137
15.477499961853027
15.022500038146973
15.114999771118164
15.382499694824219
14.680000305175781
15.257499694824219
15.117500305175781
14.557499885559082
15.102499961853027
15.47249984741211
16.272499084472656
16.34749984741211
16.405000686645508
16.647499084472656
15.859999656677246
15.797499656677246
15.357500076293945
15.369999885559082
15.337499618530273
15.875
16.02750015258789
15.984999656677246
15.65999984741211
15.510000228881836
15.292499542236328
15.237500190734863
14.897500038146973
14.842499732971191
14.979999542236328
15.270000457763672
16.262500762939453
16.065000534057617
16.302499771118164
16.5049991607666
16.385000228881836
16.524999618530273
16.450000762939453
16.84749984741211
16.524999618530273
17.032499313354492
17.559999465942383
17.702499389648438
17.5
16.850000381469727
15.4350004196167
14.837499618530273
14.550000190734863
14.5600004196167
14.867500305175781
15.220000267028809
15.467499732971191
15.052499771118164
14.672499656677246
14.640000343322754
14.612500190734863
14.927499771118164
15.302499771118164
15.932499885559082
16.537500381469727
16.2450008392334
15.869999885559082
15.542499542236328
15.232500076293945
15.012499809265137
15.265000343322754
15.604999542236328
15.5625
15.625
16.112499237060547
15.737500190734863
15.5649995803833
16.452499389648438
16.727500915527344
15.899999618530273
15.3125
14.727499961853027
14.8100004196167
14.702500343322754
14.882499694824219
15.114999771118164
14.697500228881836
15.012499809265137
15.447500228881836
15.734999656677246
15.800000190734863
15.7475004196167
16.15250015258789
16.38249969482422
16.415000915527344
16.1924991607666
15.970000267028809
14.96500015258789
14.614999771118164
14.7524995803833
14.047499656677246
15.237500190734863
14.9975004196167
14.944999694824219
15.265000343322754
14.852499961853027
14.84000015258789
14.892499923706055
15.175000190734863
15.430000305175781
15.569999694824219
15.53499984741211
15.842499732971191
15.994999885559082
15.982500076293945
15.757499694824219
15.335000038146973
15.114999771118164
14.947500228881836
15.125
15.010000228881836
15.095000267028809
15.487500190734863
15.717499732971191
15.322500228881836
15.359999656677246
15.362500190734863
15.005000114440918
15.09749984741211
14.362500190734863
14.270000457763672
14.457500457763672
15.0600004196167
15.157500267028809
15.037500381469727
15.09000015258789
14.982500076293945
15.522500038146973
16.232500076293945
15.822500228881836
16.397499084472656
15.132499694824219
15.045000076293945
15.322500228881836
15.552499771118164
15.992500305175781
16.702499389648438
16.315000534057617
15.699999809265137
15.702500343322754
15.532500267028809
15.805000305175781
16.157499313354492
16.375
15.72249984741211
15.65999984741211
15.202500343322754
14.817500114440918
14.914999961853027
15.029999732971191
14.545000076293945
15.079999923706055
15.170000076293945
15.057499885559082
15.15999984741211
15.020000457763672
14.994999885559082
15.024999618530273
15.34000015258789
15.3125
15.654999732971191
15.734999656677246
15.22249984741211
15.1274995803833
15.029999732971191
14.960000038146973
14.427499771118164
14.59000015258789
14.662500381469727
13.954999923706055
14.789999961853027
15.404999732971191
15.352499961853027
15.545000076293945
15.720000267028809
15.427499771118164
15.545000076293945
15.744999885559082
15.452500343322754
15.612500190734863
15.234999656677246
15.292499542236328
15.5024995803833
15.662500381469727
15.5024995803833
15.03499984741211
14.662500381469727
14.5600004196167
14.675000190734863
14.882499694824219
15.457500457763672
16.107500076293945
16.565000534057617
16.09000015258789
15.430000305175781
14.869999885559082
14.484999656677246
14.890000343322754
15.0024995803833
15.697500228881836
15.555000305175781
14.912500381469727
14.867500305175781
15.092499732971191
14.932499885559082
15.295000076293945
15.96500015258789
15.852499961853027
15.537500381469727
15.657500267028809
15.207500457763672
14.9975004196167
15.069999694824219
15.007499694824219
14.904999732971191
15.260000228881836
15.617500305175781
16.010000228881836
16.607500076293945
16.795000076293945
16.6825008392334
16.602500915527344
16.702499389648438
16.162500381469727
15.859999656677246
15.704999923706055
15.220000267028809
15.342499732971191
15.305000305175781
15.0
15.107500076293945
14.682499885559082
14.717499732971191
15.045000076293945
15.3725004196167
15.692500114440918
16.502500534057617
16.899999618530273
16.74250030517578
16.450000762939453
16.139999389648438
15.52750015258789
15.59749984741211
15.3100004196167
15.170000076293945
15.672499656677246
15.3725004196167
15.430000305175781
15.882499694824219
14.960000038146973
15.5625
15.734999656677246
15.520000457763672
16.010000228881836
16.3075008392334
15.782500267028809
14.717499732971191
14.430000305175781
14.802499771118164
14.412500381469727
14.470000267028809
14.822500228881836
14.324999809265137
15.302499771118164
15.6850004196167
16.4325008392334
16.899999618530273
16.475000381469727
16.487499237060547
16.024999618530273
15.329999923706055
15.52750015258789
16.03499984741211
15.225000381469727
15.380000114440918
15.837499618530273
15.492500305175781
16.100000381469727
16.202499389648438
16.100000381469727
15.542499542236328
15.805000305175781
15.387499809265137
15.737500190734863
16.559999465942383
16.975000381469727
17.274999618530273
16.93000030517578
16.700000762939453
16.49250030517578
15.774999618530273
15.75
15.092499732971191
15.092499732971191
15.157500267028809
14.9375
15.232500076293945
15.5
15.380000114440918
15.397500038146973
15.694999694824219
15.267499923706055
15.362500190734863
15.827500343322754
16.172500610351562
16.520000457763672
16.502500534057617
16.657499313354492
16.72249984741211
16.5674991607666
16.190000534057617
16.34000015258789
16.427499771118164
16.252500534057617
16.587499618530273
16.407499313354492
16.344999313354492
16.1200008392334
15.864999771118164
15.795000076293945
16.0049991607666
16.155000686645508
16.729999542236328
16.037500381469727
16.469999313354492
15.887499809265137
15.710000038146973
15.827500343322754
15.657500267028809
15.220000267028809
15.692500114440918
15.512499809265137
15.074999809265137
15.005000114440918
15.017499923706055
15.537500381469727
15.512499809265137
15.869999885559082
16.517499923706055
16.270000457763672
16.594999313354492
17.49250030517578
16.454999923706055
15.432499885559082
15.642499923706055
15.1274995803833
15.494999885559082
15.489999771118164
15.512499809265137
15.21500015258789
15.302499771118164
15.557499885559082
16.165000915527344
15.90250015258789
16.49250030517578
15.567500114440918
14.90250015258789
14.800000190734863
14.1875
14.234999656677246
14.282500267028809
14.917499542236328
14.837499618530273
15.822500228881836
16.43000030517578
15.979999542236328
16.375
15.484999656677246
14.9375
15.390000343322754
15.555000305175781
15.970000267028809
16.63249969482422
16.584999084472656
16.327499389648438
16.197500228881836
15.739999771118164
15.702500343322754
15.582500457763672
15.444999694824219
15.142499923706055
14.90999984741211
14.957500457763672
15.135000228881836
15.265000343322754
15.395000457763672
14.97249984741211
14.835000038146973
14.942500114440918
15.244999885559082
15.069999694824219
15.510000228881836
15.217499732971191
15.137499809265137
15.007499694824219
15.3125
15.579999923706055
15.947500228881836
15.75
15.385000228881836
15.177499771118164
14.65250015258789
15.255000114440918
15.217499732971191
14.96500015258789
15.130000114440918
15.364999771118164
15.977499961853027
16.375
16.725000381469727
16.52750015258789
16.69499969482422
16.447500228881836
15.880000114440918
15.542499542236328
15.447500228881836
15.574999809265137
15.592499732971191
15.9350004196167
16.1875
15.994999885559082
15.199999809265137
15.460000038146973
15.257499694824219
14.9975004196167
15.119999885559082
14.835000038146973
14.742500305175781
15.022500038146973
14.970000267028809
15.869999885559082
16.260000228881836
16.05500030517578
16.584999084472656
15.637499809265137
16.139999389648438
16.05500030517578
15.892499923706055
16.262500762939453
16.417499542236328
15.897500038146973
16.13249969482422
16.459999084472656
15.707500457763672
16.270000457763672
16.584999084472656
15.967499732971191
15.552499771118164
15.6850004196167
15.550000190734863
15.850000381469727
16.40999984741211
16.412500381469727
16.532499313354492
16.142499923706055
15.577500343322754
15.492500305175781
15.927499771118164
16.262500762939453
16.542499542236328
16.93000030517578
16.975000381469727
16.732500076293945
16.927499771118164
17.392499923706055
16.6924991607666
16.357500076293945
14.994999885559082
14.664999961853027
14.787500381469727
15.192500114440918
15.949999809265137
15.765000343322754
15.5
15.987500190734863
15.640000343322754
15.28499984741211
15.657500267028809
15.382499694824219
15.65250015258789
15.505000114440918
15.3725004196167
15.40999984741211
14.657500267028809
15.300000190734863
15.792499542236328
16.139999389648438
15.979999542236328
15.4350004196167
15.507499694824219
15.392499923706055
15.327500343322754
15.072500228881836
14.949999809265137
14.944999694824219
14.987500190734863
15.489999771118164
15.569999694824219
15.5649995803833
15.6899995803833
15.537500381469727
15.5600004196167
15.992500305175781
15.52750015258789
15.492500305175781
15.095000267028809
14.71500015258789
14.692500114440918
14.795000076293945
14.567500114440918
15.067500114440918
15.302499771118164
14.192500114440918
15.1899995803833
14.84749984741211
15.039999961853027
15.694999694824219
15.550000190734863
15.567500114440918
15.977499961853027
16.207500457763672
16.622499465942383
16.100000381469727
16.235000610351562
16.0674991607666
15.949999809265137
16.1299991607666
15.992500305175781
15.337499618530273
15.34000015258789
15.007499694824219
15.3100004196167
15.675000190734863
15.522500038146973
15.882499694824219
16.212499618530273
15.779999732971191
16.1924991607666
15.772500038146973
15.1899995803833
15.925000190734863
15.957500457763672
15.592499732971191
15.385000228881836
15.170000076293945
14.694999694824219
15.6274995803833
15.579999923706055
15.727499961853027
15.529999732971191
15.952500343322754
15.885000228881836
16.50749969482422
16.542499542236328
16.5674991607666
16.040000915527344
15.447500228881836
15.672499656677246
16.360000610351562
