EpRewMean
0.8835616707801819
1.0714285373687744
1.0792838335037231
1.2549999952316284
1.2949999570846558
1.2825000286102295
1.5449999570846558
1.4474999904632568
1.524999976158142
1.5475000143051147
1.5475000143051147
1.7324999570846558
1.6924999952316284
1.4574999809265137
1.212499976158142
1.1575000286102295
1.347499966621399
1.3450000286102295
1.4900000095367432
1.537500023841858
1.2975000143051147
1.1024999618530273
1.0475000143051147
1.0625
1.0800000429153442
1.1675000190734863
1.1399999856948853
1.2699999809265137
1.3350000381469727
1.5724999904632568
1.5724999904632568
1.2174999713897705
1.274999976158142
1.409999966621399
1.6825000047683716
1.5399999618530273
1.225000023841858
1.125
1.190000057220459
1.4075000286102295
1.502500057220459
1.350000023841858
1.497499942779541
1.309999942779541
1.3574999570846558
1.524999976158142
1.7649999856948853
1.652500033378601
1.5125000476837158
1.465000033378601
1.527500033378601
1.6100000143051147
1.3200000524520874
1.4325000047683716
1.7575000524520874
1.815000057220459
1.6775000095367432
1.7649999856948853
1.465000033378601
1.247499942779541
1.5
1.5175000429153442
1.440000057220459
1.5475000143051147
1.5325000286102295
1.652500033378601
1.7949999570846558
1.9874999523162842
1.9424999952316284
1.8450000286102295
1.6449999809265137
1.715000033378601
1.75
1.9500000476837158
1.8224999904632568
1.934999942779541
1.9049999713897705
1.9874999523162842
2.1500000953674316
2.067500114440918
2.2325000762939453
2.317500114440918
2.390000104904175
2.0199999809265137
2.0225000381469727
2.3475000858306885
2.192500114440918
1.9249999523162842
2.0450000762939453
2.055000066757202
2.322499990463257
2.362499952316284
2.430000066757202
2.0999999046325684
2.0875000953674316
2.4049999713897705
2.3499999046325684
2.325000047683716
2.3450000286102295
2.322499990463257
2.3350000381469727
2.132499933242798
2.115000009536743
2.4100000858306885
2.7825000286102295
2.5625
2.382499933242798
2.3975000381469727
2.922499895095825
2.867500066757202
2.549999952316284
2.555000066757202
2.552500009536743
2.490000009536743
2.5350000858306885
2.757499933242798
2.5425000190734863
2.424999952316284
2.690000057220459
2.805000066757202
2.8450000286102295
2.859999895095825
2.8949999809265137
2.9000000953674316
3.0450000762939453
2.617500066757202
2.5625
2.827500104904175
3.069999933242798
3.2225000858306885
2.997499942779541
2.762500047683716
2.890000104904175
3.512500047683716
3.177500009536743
3.4774999618530273
3.4375
3.4749999046325684
3.0975000858306885
2.944999933242798
3.252500057220459
3.677500009536743
3.3550000190734863
3.265000104904175
3.559999942779541
3.2325000762939453
3.0399999618530273
3.0299999713897705
3.134999990463257
3.5250000953674316
3.380000114440918
3.0250000953674316
3.0174999237060547
3.615000009536743
3.507499933242798
3.369999885559082
3.0899999141693115
3.4625000953674316
3.3524999618530273
3.8299999237060547
3.809999942779541
3.297499895095825
3.1075000762939453
3.5450000762939453
3.422499895095825
3.615000009536743
3.7300000190734863
3.609999895095825
4.190000057220459
4.182499885559082
3.9800000190734863
3.5274999141693115
3.557499885559082
3.9649999141693115
3.859999895095825
3.740000009536743
3.9800000190734863
3.8375000953674316
4.202499866485596
3.7699999809265137
4.340000152587891
4.087500095367432
4.417500019073486
4.052499771118164
4.272500038146973
4.172500133514404
4.082499980926514
4.177499771118164
4.322500228881836
3.427500009536743
3.630000114440918
4.380000114440918
4.432499885559082
4.982500076293945
4.434999942779541
4.242499828338623
4.947500228881836
4.925000190734863
4.787499904632568
4.752500057220459
4.78249979019165
4.46750020980835
4.077499866485596
4.289999961853027
4.795000076293945
4.257500171661377
4.559999942779541
5.005000114440918
5.022500038146973
5.002500057220459
4.497499942779541
5.292500019073486
4.684999942779541
5.142499923706055
5.242499828338623
5.465000152587891
5.15500020980835
5.28249979019165
5.227499961853027
5.309999942779541
5.0625
5.59250020980835
5.045000076293945
5.03000020980835
5.434999942779541
5.40500020980835
5.6875
5.75
5.824999809265137
5.9375
5.224999904632568
5.224999904632568
5.085000038146973
6.324999809265137
5.900000095367432
6.357500076293945
5.802499771118164
5.827499866485596
6.385000228881836
5.914999961853027
5.632500171661377
5.597499847412109
5.974999904632568
6.175000190734863
5.994999885559082
6.377500057220459
6.122499942779541
6.360000133514404
6.170000076293945
6.182499885559082
5.817500114440918
6.447500228881836
6.737500190734863
6.429999828338623
6.447500228881836
6.0625
5.869999885559082
5.887499809265137
6.097499847412109
6.699999809265137
6.820000171661377
6.572500228881836
6.832499980926514
6.534999847412109
6.164999961853027
6.647500038146973
7.190000057220459
6.502500057220459
6.324999809265137
6.707499980926514
6.332499980926514
6.682499885559082
7.025000095367432
6.514999866485596
6.65749979019165
6.760000228881836
7.117499828338623
7.067500114440918
6.960000038146973
6.534999847412109
7.230000019073486
6.949999809265137
7.010000228881836
6.465000152587891
6.59250020980835
6.662499904632568
6.34250020980835
6.809999942779541
6.894999980926514
7.239999771118164
7.492499828338623
7.489999771118164
7.554999828338623
7.752500057220459
7.414999961853027
7.247499942779541
7.147500038146973
7.097499847412109
7.637499809265137
7.550000190734863
7.382500171661377
7.014999866485596
6.697500228881836
7.300000190734863
7.227499961853027
6.880000114440918
6.764999866485596
7.522500038146973
7.6875
7.277500152587891
8.007499694824219
7.775000095367432
7.679999828338623
7.574999809265137
7.784999847412109
7.800000190734863
8.102499961853027
8.1225004196167
8.125
7.582499980926514
7.519999980926514
8.1875
8.267499923706055
8.234999656677246
7.542500019073486
7.820000171661377
7.775000095367432
8.460000038146973
8.154999732971191
7.84250020980835
8.162500381469727
8.140000343322754
8.154999732971191
8.2524995803833
8.260000228881836
8.109999656677246
8.609999656677246
8.069999694824219
7.795000076293945
7.897500038146973
8.262499809265137
8.3774995803833
8.707500457763672
8.852499961853027
8.829999923706055
8.15999984741211
8.5600004196167
9.069999694824219
8.567500114440918
8.5024995803833
7.945000171661377
8.005000114440918
8.602499961853027
8.449999809265137
8.539999961853027
8.654999732971191
8.817500114440918
9.045000076293945
8.797499656677246
8.77750015258789
8.827500343322754
8.537500381469727
8.782500267028809
8.712499618530273
8.84749984741211
8.8725004196167
8.800000190734863
8.510000228881836
8.640000343322754
9.180000305175781
8.7524995803833
9.010000228881836
9.109999656677246
8.664999961853027
8.260000228881836
8.949999809265137
9.072500228881836
9.047499656677246
9.414999961853027
9.2524995803833
8.819999694824219
8.819999694824219
8.914999961853027
8.925000190734863
8.792499542236328
8.802499771118164
8.734999656677246
9.272500038146973
9.024999618530273
9.109999656677246
8.642499923706055
8.864999771118164
8.852499961853027
8.987500190734863
8.795000076293945
9.1850004196167
8.989999771118164
8.802499771118164
9.037500381469727
9.0
9.039999961853027
8.829999923706055
8.979999542236328
9.194999694824219
9.332500457763672
8.842499732971191
8.914999961853027
8.930000305175781
8.907500267028809
8.817500114440918
8.720000267028809
9.042499542236328
9.085000038146973
8.864999771118164
9.167499542236328
9.147500038146973
9.007499694824219
9.092499732971191
9.045000076293945
9.0024995803833
8.982500076293945
9.107500076293945
9.194999694824219
9.029999732971191
8.4399995803833
8.332500457763672
8.342499732971191
8.800000190734863
9.0625
9.305000305175781
8.84000015258789
8.932499885559082
9.5600004196167
9.109999656677246
9.289999961853027
9.087499618530273
9.202500343322754
9.0
8.720000267028809
8.647500038146973
8.957500457763672
9.074999809265137
9.050000190734863
9.255000114440918
9.104999542236328
9.22249984741211
9.579999923706055
9.444999694824219
9.375
9.287500381469727
9.207500457763672
9.337499618530273
9.140000343322754
9.220000267028809
9.015000343322754
9.420000076293945
9.255000114440918
9.125
8.762499809265137
8.649999618530273
8.737500190734863
8.78499984741211
9.199999809265137
9.125
8.942500114440918
9.104999542236328
9.512499809265137
10.167499542236328
9.515000343322754
8.702500343322754
9.329999923706055
9.517499923706055
9.34749984741211
9.017499923706055
9.135000228881836
9.460000038146973
9.9375
9.4975004196167
9.244999885559082
8.84000015258789
8.920000076293945
9.357500076293945
9.557499885559082
9.382499694824219
9.484999656677246
9.255000114440918
9.40250015258789
9.46500015258789
9.552499771118164
9.532500267028809
9.414999961853027
9.350000381469727
9.100000381469727
9.327500343322754
9.46500015258789
9.15250015258789
8.742500305175781
8.917499542236328
9.199999809265137
9.305000305175781
9.75
9.302499771118164
9.279999732971191
9.164999961853027
9.03499984741211
9.529999732971191
9.550000190734863
9.020000457763672
9.539999961853027
9.630000114440918
9.59749984741211
9.085000038146973
9.392499923706055
9.494999885559082
9.2475004196167
9.427499771118164
9.21500015258789
9.170000076293945
9.15999984741211
9.3774995803833
9.532500267028809
9.925000190734863
9.8149995803833
9.692500114440918
9.710000038146973
9.557499885559082
9.460000038146973
9.265000343322754
9.34000015258789
9.154999732971191
9.770000457763672
9.994999885559082
10.350000381469727
10.444999694824219
9.824999809265137
9.897500038146973
9.970000267028809
9.382499694824219
9.645000457763672
9.975000381469727
9.987500190734863
9.84000015258789
9.895000457763672
10.130000114440918
9.7524995803833
9.859999656677246
9.9350004196167
10.162500381469727
9.797499656677246
9.637499809265137
9.862500190734863
10.03499984741211
10.182499885559082
9.977499961853027
10.287500381469727
9.982500076293945
9.829999923706055
9.922499656677246
9.78499984741211
9.782500267028809
10.140000343322754
9.899999618530273
9.957500457763672
10.345000267028809
10.207500457763672
10.157500267028809
9.837499618530273
9.795000076293945
10.302499771118164
10.170000076293945
10.022500038146973
9.760000228881836
10.020000457763672
9.737500190734863
9.454999923706055
9.864999771118164
9.71500015258789
10.2524995803833
10.47249984741211
10.392499923706055
10.0600004196167
9.857500076293945
9.920000076293945
9.96500015258789
10.380000114440918
10.142499923706055
10.194999694824219
9.842499732971191
10.239999771118164
9.555000305175781
10.055000305175781
10.350000381469727
10.647500038146973
9.755000114440918
10.4975004196167
9.802499771118164
10.164999961853027
10.037500381469727
10.5024995803833
10.345000267028809
10.057499885559082
10.467499732971191
9.987500190734863
9.845000267028809
10.229999542236328
10.069999694824219
9.774999618530273
9.892499923706055
9.787500381469727
9.765000343322754
9.704999923706055
10.042499542236328
10.414999961853027
10.140000343322754
10.137499809265137
10.265000343322754
10.109999656677246
9.617500305175781
10.032500267028809
10.317500114440918
10.082500457763672
10.40250015258789
10.3774995803833
9.670000076293945
9.607500076293945
9.787500381469727
10.022500038146973
9.779999732971191
9.770000457763672
10.162500381469727
10.170000076293945
9.449999809265137
9.697500228881836
10.140000343322754
9.949999809265137
9.542499542236328
9.682499885559082
9.829999923706055
10.262499809265137
10.039999961853027
10.09000015258789
9.960000038146973
9.970000267028809
10.112500190734863
9.977499961853027
9.944999694824219
9.8774995803833
10.104999542236328
10.272500038146973
10.242500305175781
10.170000076293945
9.640000343322754
9.817500114440918
9.75
9.927499771118164
10.012499809265137
10.239999771118164
10.460000038146973
10.3125
10.2524995803833
10.037500381469727
9.774999618530273
9.987500190734863
10.175000190734863
10.324999809265137
10.262499809265137
10.102499961853027
10.119999885559082
10.147500038146973
9.817500114440918
9.362500190734863
10.112500190734863
10.467499732971191
10.02750015258789
10.02750015258789
10.329999923706055
10.2524995803833
10.194999694824219
10.03499984741211
10.369999885559082
10.404999732971191
10.050000190734863
9.547499656677246
10.147500038146973
10.454999923706055
9.630000114440918
9.717499732971191
10.1850004196167
10.432499885559082
10.342499732971191
10.319999694824219
10.117500305175781
10.022500038146973
10.104999542236328
9.984999656677246
9.920000076293945
9.837499618530273
10.3725004196167
10.197500228881836
9.317500114440918
9.8774995803833
10.242500305175781
10.02750015258789
10.032500267028809
10.300000190734863
9.9350004196167
9.755000114440918
10.260000228881836
10.444999694824219
10.142499923706055
10.170000076293945
10.057499885559082
9.842499732971191
10.055000305175781
10.225000381469727
10.167499542236328
10.175000190734863
10.2475004196167
10.067500114440918
10.21500015258789
9.760000228881836
10.032500267028809
9.984999656677246
10.337499618530273
10.09000015258789
10.007499694824219
10.72249984741211
10.202500343322754
10.125
10.444999694824219
10.227499961853027
10.404999732971191
10.612500190734863
10.47249984741211
10.7475004196167
10.395000457763672
10.317500114440918
10.1274995803833
10.260000228881836
9.984999656677246
9.975000381469727
9.967499732971191
10.087499618530273
10.380000114440918
10.380000114440918
10.170000076293945
10.095000267028809
10.217499732971191
10.587499618530273
10.654999732971191
10.604999542236328
10.015000343322754
9.9375
9.944999694824219
10.017499923706055
10.255000114440918
10.567500114440918
10.267499923706055
10.242500305175781
10.15250015258789
9.895000457763672
9.920000076293945
9.757499694824219
10.192500114440918
10.02750015258789
9.744999885559082
10.255000114440918
10.567500114440918
10.102499961853027
10.0
10.157500267028809
10.407500267028809
10.282500267028809
10.147500038146973
10.0649995803833
9.862500190734863
10.1274995803833
10.412500381469727
10.164999961853027
10.262499809265137
9.604999542236328
9.770000457763672
10.47249984741211
10.332500457763672
10.037500381469727
10.2524995803833
10.212499618530273
9.907500267028809
9.957500457763672
10.207500457763672
10.09749984741211
10.199999809265137
10.582500457763672
10.537500381469727
10.170000076293945
10.055000305175781
10.739999771118164
10.270000457763672
10.507499694824219
10.322500228881836
9.859999656677246
10.457500457763672
10.104999542236328
9.857500076293945
10.055000305175781
10.114999771118164
10.329999923706055
10.550000190734863
10.1899995803833
10.5024995803833
10.4375
10.59000015258789
10.850000381469727
10.204999923706055
9.922499656677246
10.1225004196167
10.119999885559082
10.202500343322754
10.487500190734863
10.484999656677246
10.3149995803833
10.194999694824219
10.2524995803833
10.350000381469727
10.302499771118164
10.149999618530273
10.092499732971191
10.297499656677246
9.979999542236328
10.087499618530273
10.194999694824219
9.3100004196167
9.805000305175781
10.279999732971191
10.055000305175781
10.387499809265137
9.97249984741211
10.09749984741211
10.15999984741211
9.975000381469727
10.385000228881836
10.390000343322754
10.510000228881836
10.342499732971191
9.957500457763672
10.055000305175781
10.092499732971191
10.357500076293945
10.569999694824219
10.427499771118164
10.194999694824219
10.532500267028809
9.917499542236328
10.162500381469727
10.005000114440918
10.3725004196167
10.619999885559082
10.234999656677246
10.572500228881836
10.417499542236328
10.727499961853027
10.197500228881836
10.194999694824219
10.407500267028809
10.319999694824219
10.154999732971191
10.387499809265137
10.194999694824219
9.680000305175781
9.647500038146973
10.15999984741211
10.369999885559082
10.442500114440918
10.640000343322754
10.712499618530273
10.362500190734863
10.522500038146973
10.729999542236328
10.664999961853027
10.477499961853027
10.1225004196167
10.305000305175781
10.522500038146973
10.447500228881836
10.420000076293945
10.25
10.672499656677246
10.545000076293945
10.154999732971191
10.1850004196167
10.15250015258789
10.5600004196167
10.77750015258789
10.47249984741211
10.329999923706055
10.487500190734863
10.170000076293945
10.417499542236328
10.432499885559082
10.324999809265137
10.824999809265137
10.7524995803833
10.542499542236328
10.34000015258789
10.482500076293945
10.207500457763672
10.34749984741211
10.864999771118164
10.572500228881836
10.1225004196167
10.239999771118164
10.182499885559082
10.024999618530273
10.717499732971191
10.762499809265137
10.755000114440918
10.482500076293945
10.602499961853027
10.40999984741211
10.407500267028809
10.454999923706055
10.2524995803833
10.390000343322754
10.59749984741211
10.40999984741211
10.65250015258789
10.717499732971191
10.204999923706055
10.449999809265137
10.3125
10.319999694824219
10.5649995803833
10.9350004196167
10.382499694824219
10.46500015258789
10.297499656677246
10.145000457763672
10.359999656677246
10.422499656677246
10.4399995803833
10.577500343322754
10.397500038146973
10.337499618530273
10.532500267028809
10.457500457763672
10.34000015258789
10.204999923706055
10.369999885559082
10.532500267028809
10.454999923706055
10.229999542236328
10.357500076293945
10.654999732971191
9.857500076293945
9.930000305175781
10.217499732971191
10.447500228881836
10.242500305175781
10.65250015258789
10.470000267028809
10.119999885559082
10.210000038146973
10.212499618530273
10.102499961853027
10.27750015258789
10.482500076293945
10.470000267028809
10.72249984741211
10.672499656677246
10.710000038146973
10.90250015258789
10.727499961853027
10.337499618530273
10.457500457763672
10.25
10.782500267028809
10.59000015258789
10.53499984741211
10.407500267028809
10.932499885559082
10.460000038146973
10.332500457763672
10.737500190734863
10.385000228881836
10.762499809265137
10.664999961853027
10.40250015258789
10.657500267028809
10.645000457763672
10.454999923706055
10.112500190734863
10.265000343322754
10.430000305175781
10.072500228881836
10.15250015258789
10.2475004196167
10.4975004196167
10.4375
10.482500076293945
10.517499923706055
10.702500343322754
10.337499618530273
10.1850004196167
10.047499656677246
10.242500305175781
10.15250015258789
10.672499656677246
10.6875
10.587499618530273
10.404999732971191
10.670000076293945
10.484999656677246
10.367500305175781
10.34000015258789
10.364999771118164
10.237500190734863
10.087499618530273
10.734999656677246
10.40999984741211
10.507499694824219
10.970000267028809
10.607500076293945
10.40250015258789
10.524999618530273
11.032500267028809
10.707500457763672
10.632499694824219
10.577500343322754
10.492500305175781
10.822500228881836
10.9350004196167
10.829999923706055
10.774999618530273
10.912500381469727
10.842499732971191
10.47249984741211
10.512499809265137
11.162500381469727
10.647500038146973
10.6899995803833
10.392499923706055
10.520000457763672
10.244999885559082
10.404999732971191
10.727499961853027
10.5600004196167
11.03499984741211
10.977499961853027
10.979999542236328
10.952500343322754
10.770000457763672
10.71500015258789
11.050000190734863
10.414999961853027
10.587499618530273
10.832500457763672
11.052499771118164
11.342499732971191
10.952500343322754
10.819999694824219
10.7524995803833
10.295000076293945
10.470000267028809
10.484999656677246
11.085000038146973
11.244999885559082
11.1225004196167
10.512499809265137
10.045000076293945
10.262499809265137
10.537500381469727
10.529999732971191
10.289999961853027
10.617500305175781
10.579999923706055
10.552499771118164
10.555000305175781
10.904999732971191
10.837499618530273
10.609999656677246
10.635000228881836
10.267499923706055
10.319999694824219
10.647500038146973
10.612500190734863
10.427499771118164
10.795000076293945
10.734999656677246
10.087499618530273
10.397500038146973
10.390000343322754
10.704999923706055
10.619999885559082
10.412500381469727
10.404999732971191
10.282500267028809
10.492500305175781
10.727499961853027
10.462499618530273
10.515000343322754
10.765000343322754
10.732500076293945
10.47249984741211
10.529999732971191
10.875
10.395000457763672
10.59749984741211
10.822500228881836
10.442500114440918
10.744999885559082
10.457500457763672
10.397500038146973
10.21500015258789
10.239999771118164
10.359999656677246
10.917499542236328
10.824999809265137
10.552499771118164
10.875
10.517499923706055
10.345000267028809
10.09749984741211
10.819999694824219
10.845000267028809
10.755000114440918
10.595000267028809
10.75
10.59749984741211
10.585000038146973
10.542499542236328
10.3774995803833
10.65999984741211
10.880000114440918
10.545000076293945
10.6225004196167
10.824999809265137
10.895000457763672
10.479999542236328
11.197500228881836
10.994999885559082
10.8774995803833
10.822500228881836
11.114999771118164
10.657500267028809
10.729999542236328
10.692500114440918
11.022500038146973
11.145000457763672
10.947500228881836
10.765000343322754
10.470000267028809
10.552499771118164
10.770000457763672
10.867500305175781
10.422499656677246
10.537500381469727
10.614999771118164
10.399999618530273
10.880000114440918
10.457500457763672
10.442500114440918
10.720000267028809
10.6225004196167
10.725000381469727
10.375
10.329999923706055
10.364999771118164
10.462499618530273
10.529999732971191
10.702500343322754
10.272500038146973
10.547499656677246
10.557499885559082
10.354999542236328
10.492500305175781
10.65999984741211
10.635000228881836
10.725000381469727
10.524999618530273
10.432499885559082
10.569999694824219
10.614999771118164
10.702500343322754
10.757499694824219
10.475000381469727
10.345000267028809
10.550000190734863
10.65250015258789
10.702500343322754
10.807499885559082
10.824999809265137
10.5024995803833
10.34749984741211
10.792499542236328
10.637499809265137
10.550000190734863
10.387499809265137
10.512499809265137
10.587499618530273
10.3100004196167
10.927499771118164
10.3125
10.390000343322754
10.859999656677246
10.770000457763672
10.422499656677246
10.305000305175781
10.382499694824219
10.9399995803833
10.632499694824219
10.625
10.59749984741211
10.899999618530273
10.692500114440918
10.692500114440918
10.335000038146973
10.342499732971191
10.729999542236328
10.677499771118164
10.890000343322754
10.577500343322754
10.494999885559082
10.755000114440918
10.3774995803833
10.817500114440918
10.727499961853027
10.354999542236328
11.032500267028809
10.8100004196167
10.947500228881836
11.119999885559082
10.782500267028809
10.6899995803833
10.680000305175781
10.6225004196167
11.072500228881836
10.432499885559082
10.6225004196167
10.84749984741211
10.477499961853027
10.407500267028809
10.729999542236328
10.257499694824219
10.375
10.557499885559082
10.600000381469727
10.487500190734863
10.662500381469727
10.532500267028809
10.772500038146973
10.774999618530273
10.592499732971191
10.569999694824219
10.520000457763672
10.602499961853027
10.6899995803833
10.505000114440918
10.582500457763672
10.625
11.15999984741211
10.882499694824219
10.567500114440918
10.430000305175781
10.609999656677246
11.27750015258789
10.942500114440918
11.042499542236328
10.414999961853027
10.574999809265137
10.949999809265137
10.704999923706055
10.947500228881836
11.03499984741211
10.6225004196167
10.40999984741211
10.927499771118164
10.664999961853027
10.8725004196167
10.734999656677246
10.952500343322754
10.982500076293945
11.017499923706055
10.850000381469727
10.677499771118164
10.604999542236328
10.635000228881836
10.332500457763672
10.922499656677246
10.859999656677246
10.892499923706055
10.850000381469727
10.444999694824219
10.917499542236328
10.742500305175781
10.892499923706055
10.462499618530273
10.707500457763672
10.697500228881836
10.772500038146973
10.757499694824219
10.425000190734863
10.21500015258789
10.494999885559082
10.335000038146973
10.712499618530273
10.850000381469727
11.069999694824219
10.782500267028809
10.757499694824219
10.59000015258789
10.6274995803833
10.5600004196167
10.645000457763672
10.545000076293945
10.755000114440918
10.625
10.279999732971191
10.257499694824219
10.675000190734863
10.572500228881836
10.645000457763672
11.255000114440918
10.850000381469727
10.414999961853027
10.567500114440918
10.710000038146973
11.017499923706055
11.015000343322754
11.1225004196167
10.8149995803833
10.8149995803833
10.852499961853027
11.020000457763672
10.6225004196167
10.875
10.692500114440918
10.845000267028809
10.867500305175781
10.962499618530273
10.914999961853027
11.135000228881836
11.265000343322754
11.052499771118164
10.550000190734863
10.03499984741211
10.675000190734863
10.772500038146973
10.805000305175781
10.795000076293945
10.787500381469727
10.617500305175781
10.852499961853027
10.970000267028809
10.782500267028809
10.930000305175781
10.680000305175781
10.625
10.654999732971191
10.595000267028809
10.8149995803833
10.702500343322754
10.887499809265137
10.845000267028809
10.782500267028809
10.359999656677246
10.882499694824219
10.9399995803833
10.395000457763672
10.765000343322754
10.8774995803833
10.729999542236328
10.505000114440918
10.917499542236328
10.7524995803833
10.96500015258789
11.010000228881836
10.577500343322754
10.765000343322754
10.789999961853027
10.819999694824219
10.895000457763672
11.095000267028809
10.729999542236328
10.600000381469727
10.489999771118164
10.667499542236328
10.734999656677246
10.444999694824219
10.332500457763672
10.512499809265137
11.032500267028809
10.675000190734863
10.522500038146973
10.550000190734863
10.800000190734863
10.739999771118164
10.65999984741211
10.670000076293945
10.805000305175781
10.880000114440918
10.6225004196167
10.6225004196167
10.979999542236328
10.797499656677246
10.654999732971191
10.765000343322754
10.717499732971191
10.7524995803833
10.912500381469727
10.887499809265137
11.085000038146973
10.779999732971191
10.577500343322754
10.670000076293945
10.837499618530273
10.367500305175781
10.670000076293945
10.795000076293945
11.057499885559082
11.109999656677246
10.75
10.8725004196167
11.359999656677246
11.135000228881836
10.984999656677246
10.732500076293945
11.220000267028809
11.067500114440918
11.02750015258789
10.930000305175781
10.982500076293945
10.595000267028809
11.024999618530273
10.9350004196167
10.27750015258789
10.75
10.662500381469727
10.649999618530273
10.537500381469727
10.737500190734863
10.4975004196167
10.850000381469727
11.045000076293945
10.71500015258789
10.265000343322754
10.457500457763672
11.1274995803833
11.020000457763672
10.8774995803833
10.9350004196167
11.177499771118164
10.717499732971191
10.375
10.329999923706055
10.6875
11.052499771118164
10.9375
10.765000343322754
10.492500305175781
10.765000343322754
10.729999542236328
10.845000267028809
10.635000228881836
10.420000076293945
10.875
10.819999694824219
10.767499923706055
10.875
10.819999694824219
10.707500457763672
10.635000228881836
10.774999618530273
10.507499694824219
10.78499984741211
11.095000267028809
10.767499923706055
10.6850004196167
10.647500038146973
10.630000114440918
10.8149995803833
10.895000457763672
10.8149995803833
10.585000038146973
11.067500114440918
10.40999984741211
10.595000267028809
10.720000267028809
10.7524995803833
10.792499542236328
10.739999771118164
10.90250015258789
10.850000381469727
10.737500190734863
10.382499694824219
10.640000343322754
10.885000228881836
10.932499885559082
10.850000381469727
10.444999694824219
10.802499771118164
10.77750015258789
10.717499732971191
10.842499732971191
11.147500038146973
10.767499923706055
10.742500305175781
10.792499542236328
10.729999542236328
10.800000190734863
10.890000343322754
10.494999885559082
10.1899995803833
10.765000343322754
11.007499694824219
11.1899995803833
10.552499771118164
10.720000267028809
10.917499542236328
10.907500267028809
11.042499542236328
10.625
11.0625
11.112500190734863
10.717499732971191
10.787500381469727
10.850000381469727
