EpRewMean
0.9925000071525574
0.9449999928474426
0.925000011920929
1.0499999523162842
1.0175000429153442
1.024999976158142
1.0299999713897705
1.247499942779541
1.3274999856948853
1.4500000476837158
1.347499966621399
1.6375000476837158
1.3899999856948853
1.434999942779541
1.565000057220459
1.5425000190734863
1.3674999475479126
1.537500023841858
1.5149999856948853
1.4800000190734863
1.2825000286102295
1.5750000476837158
1.662500023841858
1.5175000429153442
1.3825000524520874
1.4850000143051147
1.6024999618530273
1.7799999713897705
1.6749999523162842
1.6749999523162842
1.6799999475479126
1.652500033378601
1.625
1.6649999618530273
1.7200000286102295
1.9249999523162842
1.8350000381469727
1.7799999713897705
2.0174999237060547
1.9199999570846558
2.072499990463257
1.8875000476837158
2.1875
2.015000104904175
2.6075000762939453
2.2699999809265137
2.049999952316284
2.174999952316284
2.487499952316284
2.2149999141693115
2.6500000953674316
2.609999895095825
2.809999942779541
2.694999933242798
2.940000057220459
2.8424999713897705
2.9100000858306885
2.8350000381469727
2.9700000286102295
3.127500057220459
3.059999942779541
3.5299999713897705
3.2874999046325684
3.3299999237060547
3.4749999046325684
3.2899999618530273
3.447499990463257
3.5924999713897705
4.082499980926514
4.195000171661377
3.9649999141693115
4.487500190734863
4.617499828338623
4.585000038146973
4.974999904632568
5.177499771118164
4.855000019073486
4.559999942779541
4.659999847412109
5.039999961853027
5.159999847412109
5.072500228881836
4.855000019073486
4.885000228881836
5.022500038146973
4.987500190734863
5.474999904632568
5.072500228881836
5.420000076293945
5.170000076293945
5.215000152587891
5.775000095367432
6.21999979019165
5.909999847412109
6.202499866485596
6.215000152587891
6.242499828338623
6.519999980926514
5.835000038146973
6.489999771118164
7.130000114440918
7.215000152587891
6.787499904632568
6.860000133514404
7.087500095367432
7.340000152587891
6.829999923706055
7.784999847412109
7.607500076293945
7.494999885559082
7.164999961853027
7.494999885559082
7.09499979019165
8.829999923706055
7.514999866485596
7.662499904632568
8.0600004196167
7.46999979019165
7.885000228881836
9.40250015258789
7.762499809265137
8.53499984741211
8.067500114440918
8.1875
7.809999942779541
8.354999542236328
8.100000381469727
8.805000305175781
8.442500114440918
7.789999961853027
8.1875
8.59000015258789
8.772500038146973
8.757499694824219
9.354999542236328
8.632499694824219
9.582500457763672
9.4375
9.875
9.795000076293945
9.642499923706055
8.944999694824219
9.157500267028809
9.569999694824219
9.867500305175781
10.335000038146973
10.84749984741211
10.454999923706055
10.125
10.770000457763672
9.899999618530273
10.257499694824219
10.15999984741211
10.449999809265137
11.385000228881836
10.984999656677246
9.882499694824219
9.922499656677246
9.875
11.032500267028809
10.859999656677246
10.345000267028809
10.362500190734863
10.34000015258789
11.047499656677246
11.587499618530273
11.479999542236328
10.875
10.552499771118164
11.647500038146973
11.292499542236328
10.932499885559082
11.420000076293945
11.867500305175781
11.045000076293945
12.112500190734863
10.364999771118164
10.875
11.8100004196167
11.927499771118164
12.21500015258789
12.057499885559082
12.010000228881836
12.017499923706055
11.585000038146973
10.842499732971191
10.8125
11.5625
12.612500190734863
13.109999656677246
12.192500114440918
12.3100004196167
11.357500076293945
12.052499771118164
12.77750015258789
11.895000457763672
13.217499732971191
12.967499732971191
11.8725004196167
12.467499732971191
12.649999618530273
13.109999656677246
14.537500381469727
13.482500076293945
13.270000457763672
12.432499885559082
13.2475004196167
13.817500114440918
12.712499618530273
12.552499771118164
13.387499809265137
13.882499694824219
12.770000457763672
12.925000190734863
13.182499885559082
12.579999923706055
13.27750015258789
13.5024995803833
12.920000076293945
12.630000114440918
13.09749984741211
13.567500114440918
13.5600004196167
13.9350004196167
13.697500228881836
13.914999961853027
13.772500038146973
14.087499618530273
15.729999542236328
15.625
15.225000381469727
14.952500343322754
14.5
15.114999771118164
16.13249969482422
15.649999618530273
15.045000076293945
13.772500038146973
14.975000381469727
15.930000305175781
16.637500762939453
14.96500015258789
15.257499694824219
14.522500038146973
14.335000038146973
15.022500038146973
16.739999771118164
16.75749969482422
15.675000190734863
16.167499542236328
16.022499084472656
15.270000457763672
14.737500190734863
14.600000381469727
15.382499694824219
16.8075008392334
15.52750015258789
15.6899995803833
16.415000915527344
15.100000381469727
14.892499923706055
16.322500228881836
16.337499618530273
15.619999885559082
16.397499084472656
15.979999542236328
16.30500030517578
16.360000610351562
16.75749969482422
16.274999618530273
15.399999618530273
15.792499542236328
16.045000076293945
16.767499923706055
17.18000030517578
16.139999389648438
15.987500190734863
16.459999084472656
17.237499237060547
16.997499465942383
16.80500030517578
16.927499771118164
16.270000457763672
16.3075008392334
16.399999618530273
16.6200008392334
17.11750030517578
16.625
15.787500381469727
15.835000038146973
17.077499389648438
16.844999313354492
16.387500762939453
15.795000076293945
15.772500038146973
17.377500534057617
17.780000686645508
17.364999771118164
17.46500015258789
17.6299991607666
17.827499389648438
18.667499542236328
18.639999389648438
18.014999389648438
17.75
18.75749969482422
18.25
18.457500457763672
18.677499771118164
17.6924991607666
16.985000610351562
17.11750030517578
17.822500228881836
17.987499237060547
17.655000686645508
18.172500610351562
16.665000915527344
16.809999465942383
17.72249984741211
17.969999313354492
17.392499923706055
16.44499969482422
17.03499984741211
16.892499923706055
16.764999389648438
17.65250015258789
17.447500228881836
17.262500762939453
16.00749969482422
16.3075008392334
17.600000381469727
17.897499084472656
16.837499618530273
17.360000610351562
18.795000076293945
18.092500686645508
18.799999237060547
18.337499618530273
17.375
19.0
18.135000228881836
18.295000076293945
18.68000030517578
17.954999923706055
17.9424991607666
18.584999084472656
19.2450008392334
19.475000381469727
19.295000076293945
20.415000915527344
20.0674991607666
19.24250030517578
18.84749984741211
18.172500610351562
17.674999237060547
18.362499237060547
18.540000915527344
18.11750030517578
18.417499542236328
18.114999771118164
18.012500762939453
17.22249984741211
17.565000534057617
18.735000610351562
18.729999542236328
17.917499542236328
16.99250030517578
17.815000534057617
19.614999771118164
19.082500457763672
19.377500534057617
19.612499237060547
19.397499084472656
18.274999618530273
17.78499984741211
18.424999237060547
18.352500915527344
18.13249969482422
18.872499465942383
18.947500228881836
18.575000762939453
18.452499389648438
18.424999237060547
18.1875
19.157499313354492
19.342500686645508
18.912500381469727
18.377500534057617
17.662500381469727
17.219999313354492
16.542499542236328
16.81999969482422
17.8075008392334
18.032499313354492
17.549999237060547
17.260000228881836
17.84749984741211
17.93000030517578
17.86750030517578
17.082500457763672
16.862499237060547
16.3125
16.1200008392334
17.552499771118164
17.74250030517578
18.0575008392334
17.645000457763672
16.975000381469727
17.702499389648438
17.712499618530273
17.34749984741211
17.917499542236328
17.635000228881836
18.09749984741211
18.405000686645508
17.49250030517578
17.954999923706055
17.299999237060547
16.522499084472656
18.5049991607666
19.584999084472656
18.075000762939453
15.9975004196167
17.049999237060547
18.270000457763672
18.15999984741211
19.482500076293945
18.88249969482422
17.822500228881836
17.90250015258789
19.290000915527344
20.395000457763672
19.907499313354492
20.622499465942383
21.662500381469727
19.594999313354492
18.767499923706055
19.09749984741211
20.9325008392334
21.610000610351562
20.047500610351562
18.94499969482422
20.545000076293945
21.197500228881836
20.610000610351562
20.637500762939453
20.3125
19.905000686645508
20.875
20.717500686645508
20.280000686645508
20.329999923706055
20.90250015258789
20.09749984741211
19.364999771118164
19.399999618530273
19.537500381469727
19.982500076293945
19.895000457763672
20.55500030517578
20.662500381469727
19.9950008392334
20.11750030517578
19.6825008392334
18.575000762939453
19.157499313354492
18.875
18.787500381469727
19.082500457763672
18.235000610351562
18.4950008392334
18.790000915527344
17.844999313354492
16.545000076293945
18.02750015258789
19.125
19.5
19.264999389648438
19.102500915527344
18.565000534057617
18.71500015258789
18.674999237060547
18.5625
18.829999923706055
18.862499237060547
19.1875
19.122499465942383
19.4375
19.6299991607666
20.075000762939453
20.077499389648438
18.262500762939453
18.697500228881836
19.517499923706055
18.622499465942383
19.3799991607666
19.434999465942383
19.0625
19.200000762939453
19.447500228881836
19.037500381469727
18.239999771118164
18.46500015258789
19.517499923706055
19.479999542236328
19.8075008392334
20.2549991607666
20.392499923706055
19.52750015258789
18.957500457763672
19.764999389648438
19.489999771118164
19.625
20.637500762939453
19.697500228881836
18.627500534057617
17.149999618530273
18.0625
18.55500030517578
19.112499237060547
19.334999084472656
19.454999923706055
20.59749984741211
20.172500610351562
19.207500457763672
19.334999084472656
18.50749969482422
18.354999542236328
18.875
17.522499084472656
17.407499313354492
19.167499542236328
18.892499923706055
18.25749969482422
19.447500228881836
19.114999771118164
18.99250030517578
19.225000381469727
18.207500457763672
17.959999084472656
17.737499237060547
17.229999542236328
17.947500228881836
18.012500762939453
17.272499084472656
18.704999923706055
19.622499465942383
19.329999923706055
18.86750030517578
19.594999313354492
19.922500610351562
20.53499984741211
19.864999771118164
19.014999389648438
19.229999542236328
20.237499237060547
20.174999237060547
20.2549991607666
21.207500457763672
20.225000381469727
18.825000762939453
18.69499969482422
18.86750030517578
20.040000915527344
20.354999542236328
19.924999237060547
19.8174991607666
20.18000030517578
19.864999771118164
19.9325008392334
19.735000610351562
19.81999969482422
20.360000610351562
19.459999084472656
19.422500610351562
19.86750030517578
20.667499542236328
20.670000076293945
19.895000457763672
19.72249984741211
20.329999923706055
20.96500015258789
21.387500762939453
21.47249984741211
21.147499084472656
20.792499542236328
20.114999771118164
20.81999969482422
21.25
20.90250015258789
21.125
21.3125
21.065000534057617
20.86750030517578
21.012500762939453
20.889999389648438
21.149999618530273
21.217500686645508
21.920000076293945
22.084999084472656
21.797500610351562
21.094999313354492
21.052499771118164
20.975000381469727
21.667499542236328
22.475000381469727
22.204999923706055
22.237499237060547
21.252500534057617
20.53499984741211
20.530000686645508
20.872499465942383
20.424999237060547
20.165000915527344
19.5
18.90250015258789
19.905000686645508
21.372499465942383
21.09749984741211
20.860000610351562
20.917499542236328
20.697500228881836
21.092500686645508
21.209999084472656
21.332500457763672
20.977500915527344
21.53499984741211
20.712499618530273
20.8700008392334
21.735000610351562
22.1875
20.962499618530273
21.299999237060547
20.677499771118164
21.667499542236328
21.954999923706055
22.68000030517578
22.702499389648438
22.704999923706055
22.014999389648438
21.475000381469727
20.787500381469727
21.24250030517578
20.795000076293945
20.30500030517578
20.59749984741211
20.454999923706055
21.482500076293945
22.670000076293945
21.4424991607666
19.857500076293945
20.489999771118164
20.427499771118164
19.0625
19.592500686645508
18.5674991607666
19.854999542236328
21.084999084472656
20.5625
20.65999984741211
21.622499465942383
21.662500381469727
21.1200008392334
21.645000457763672
22.232500076293945
23.395000457763672
21.860000610351562
21.77750015258789
22.420000076293945
23.44499969482422
23.3075008392334
22.19499969482422
21.674999237060547
20.917499542236328
20.854999542236328
21.582500457763672
21.892499923706055
21.3174991607666
21.489999771118164
21.672500610351562
21.377500534057617
21.44499969482422
21.489999771118164
20.920000076293945
21.9375
22.489999771118164
22.837499618530273
22.577499389648438
23.079999923706055
22.975000381469727
22.90250015258789
23.167499542236328
21.420000076293945
20.332500457763672
19.610000610351562
20.065000534057617
21.822500228881836
21.114999771118164
19.772499084472656
20.292499542236328
20.645000457763672
20.760000228881836
21.0049991607666
20.260000228881836
19.202499389648438
21.122499465942383
21.774999618530273
21.487499237060547
21.892499923706055
20.545000076293945
20.729999542236328
21.957500457763672
23.782499313354492
23.5575008392334
22.822500228881836
22.477500915527344
22.780000686645508
23.125
23.684999465942383
23.155000686645508
25.047500610351562
24.979999542236328
25.09749984741211
25.364999771118164
25.282499313354492
23.577499389648438
22.725000381469727
22.59000015258789
22.002500534057617
21.427499771118164
22.0575008392334
22.81999969482422
22.8174991607666
21.8174991607666
21.860000610351562
22.467500686645508
22.219999313354492
20.087499618530273
20.969999313354492
21.63249969482422
22.135000228881836
23.177499771118164
23.232500076293945
22.287500381469727
22.645000457763672
21.77750015258789
21.665000915527344
22.200000762939453
23.135000228881836
23.114999771118164
22.412500381469727
22.514999389648438
23.287500381469727
23.670000076293945
24.309999465942383
23.65250015258789
23.059999465942383
23.549999237060547
22.952499389648438
22.497499465942383
22.167499542236328
22.6875
22.100000381469727
22.280000686645508
22.209999084472656
22.264999389648438
22.729999542236328
22.329999923706055
22.672500610351562
22.21500015258789
21.959999084472656
21.834999084472656
20.59000015258789
22.100000381469727
22.1924991607666
21.6825008392334
22.11750030517578
21.655000686645508
21.727500915527344
20.905000686645508
20.385000228881836
21.2549991607666
22.052499771118164
22.047500610351562
23.084999084472656
22.657499313354492
21.920000076293945
21.875
22.1299991607666
21.889999389648438
23.34749984741211
24.03499984741211
23.959999084472656
23.13249969482422
23.6299991607666
23.184999465942383
22.50749969482422
21.915000915527344
22.264999389648438
23.329999923706055
23.0
21.912500381469727
22.2549991607666
21.9950008392334
22.8700008392334
23.177499771118164
23.19499969482422
23.1299991607666
23.662500381469727
22.684999465942383
22.155000686645508
23.47249984741211
24.0575008392334
23.270000457763672
21.997499465942383
22.74250030517578
23.375
21.9424991607666
22.547500610351562
23.122499465942383
22.989999771118164
22.375
22.34749984741211
22.4375
23.267499923706055
22.25
21.707500457763672
22.360000610351562
21.72249984741211
22.174999237060547
22.889999389648438
24.065000534057617
23.30500030517578
23.354999542236328
23.712499618530273
23.510000228881836
24.167499542236328
24.857500076293945
23.485000610351562
23.502500534057617
23.170000076293945
23.082500457763672
23.1200008392334
22.420000076293945
23.142499923706055
24.274999618530273
23.927499771118164
23.854999542236328
24.137500762939453
24.1825008392334
23.977500915527344
25.209999084472656
25.667499542236328
24.770000457763672
23.157499313354492
22.922500610351562
22.357500076293945
22.09749984741211
22.200000762939453
22.780000686645508
22.36750030517578
20.862499237060547
21.892499923706055
22.732500076293945
22.857500076293945
22.397499084472656
23.03499984741211
23.88249969482422
23.770000457763672
23.53499984741211
23.954999923706055
23.399999618530273
24.229999542236328
24.4424991607666
25.9424991607666
24.0575008392334
22.655000686645508
22.979999542236328
22.547500610351562
23.594999313354492
23.237499237060547
23.540000915527344
22.987499237060547
23.600000381469727
22.774999618530273
23.600000381469727
24.02750015258789
24.032499313354492
23.280000686645508
22.375
22.81999969482422
22.96500015258789
23.334999084472656
23.122499465942383
23.877500534057617
24.282499313354492
22.362499237060547
21.957500457763672
23.13249969482422
22.177499771118164
22.947500228881836
23.13249969482422
22.842500686645508
23.622499465942383
23.19499969482422
22.27750015258789
22.092500686645508
22.447500228881836
22.795000076293945
23.625
22.81999969482422
22.49250030517578
22.100000381469727
21.760000228881836
22.837499618530273
23.329999923706055
23.887500762939453
23.247499465942383
22.7549991607666
23.899999618530273
24.290000915527344
24.43000030517578
23.7549991607666
24.127500534057617
23.412500381469727
22.907499313354492
22.59749984741211
22.584999084472656
22.540000915527344
23.44499969482422
23.725000381469727
23.5575008392334
22.854999542236328
22.885000228881836
21.697500228881836
22.645000457763672
24.325000762939453
24.079999923706055
22.674999237060547
21.8700008392334
21.334999084472656
20.6200008392334
21.260000228881836
21.829999923706055
22.479999542236328
22.094999313354492
22.290000915527344
21.834999084472656
22.079999923706055
22.3174991607666
22.127500534057617
22.045000076293945
22.0575008392334
20.72249984741211
21.49250030517578
22.892499923706055
23.200000762939453
23.334999084472656
22.952499389648438
22.65999984741211
22.280000686645508
21.967500686645508
22.405000686645508
22.985000610351562
23.022499084472656
23.649999618530273
23.764999389648438
24.2549991607666
23.799999237060547
23.969999313354492
23.262500762939453
22.825000762939453
22.24250030517578
22.207500457763672
22.280000686645508
21.9325008392334
22.572500228881836
23.204999923706055
23.649999618530273
23.212499618530273
24.40250015258789
23.9375
23.40250015258789
22.235000610351562
23.292499542236328
23.627500534057617
24.350000381469727
24.482500076293945
24.040000915527344
23.424999237060547
23.447500228881836
23.540000915527344
23.082500457763672
23.167499542236328
23.225000381469727
22.524999618530273
21.99250030517578
22.524999618530273
23.072500228881836
24.395000457763672
23.690000534057617
22.13249969482422
21.264999389648438
22.209999084472656
21.627500534057617
22.489999771118164
22.59749984741211
22.239999771118164
22.44499969482422
22.802499771118164
22.917499542236328
22.329999923706055
20.912500381469727
20.6299991607666
21.795000076293945
22.170000076293945
21.489999771118164
21.217500686645508
22.21500015258789
22.415000915527344
21.385000228881836
22.15250015258789
22.232500076293945
22.52750015258789
22.88249969482422
22.84000015258789
22.24250030517578
22.97249984741211
22.747499465942383
23.030000686645508
22.02750015258789
20.975000381469727
21.667499542236328
21.3700008392334
20.719999313354492
21.079999923706055
21.477500915527344
21.762500762939453
21.850000381469727
22.75749969482422
22.40999984741211
22.329999923706055
21.767499923706055
22.11750030517578
22.112499237060547
21.670000076293945
20.524999618530273
21.497499465942383
21.947500228881836
22.30500030517578
21.977500915527344
22.1875
22.547500610351562
23.087499618530273
23.559999465942383
23.017499923706055
22.52750015258789
22.482500076293945
22.31999969482422
22.0575008392334
21.485000610351562
21.725000381469727
22.229999542236328
22.309999465942383
22.364999771118164
23.0049991607666
23.302499771118164
21.957500457763672
21.190000534057617
21.31999969482422
21.704999923706055
22.147499084472656
21.834999084472656
22.862499237060547
22.959999084472656
22.639999389648438
20.905000686645508
20.517499923706055
21.767499923706055
21.827499389648438
21.174999237060547
21.864999771118164
21.927499771118164
21.059999465942383
20.4950008392334
20.587499618530273
20.559999465942383
19.50749969482422
19.3700008392334
19.030000686645508
19.50749969482422
19.625
19.385000228881836
19.582500457763672
18.989999771118164
19.024999618530273
17.895000457763672
18.177499771118164
19.032499313354492
19.397499084472656
18.8125
18.81999969482422
18.912500381469727
18.917499542236328
18.010000228881836
18.342500686645508
18.575000762939453
18.350000381469727
18.920000076293945
19.737499237060547
19.997499465942383
19.602500915527344
18.987499237060547
17.934999465942383
19.267499923706055
19.267499923706055
19.552499771118164
19.46500015258789
18.27750015258789
17.9375
17.602500915527344
17.592500686645508
16.565000534057617
16.59000015258789
16.592500686645508
16.59749984741211
17.522499084472656
17.477500915527344
17.342500686645508
16.760000228881836
16.247499465942383
16.842500686645508
16.415000915527344
15.077500343322754
16.25749969482422
17.864999771118164
17.979999542236328
16.392499923706055
16.4950008392334
16.975000381469727
18.017499923706055
17.530000686645508
16.7549991607666
17.782499313354492
17.462499618530273
17.239999771118164
18.00749969482422
18.674999237060547
19.022499084472656
19.424999237060547
19.104999542236328
18.610000610351562
18.1299991607666
17.127500534057617
17.514999389648438
17.997499465942383
17.780000686645508
18.905000686645508
19.875
20.635000228881836
20.512500762939453
19.667499542236328
19.907499313354492
19.69499969482422
19.167499542236328
20.094999313354492
20.602500915527344
20.212499618530273
19.092500686645508
20.042499542236328
20.3700008392334
20.475000381469727
20.512500762939453
19.56999969482422
19.212499618530273
21.145000457763672
20.969999313354492
20.094999313354492
20.74250030517578
20.0049991607666
20.707500457763672
20.75
20.50749969482422
20.13249969482422
19.86750030517578
20.4325008392334
20.5049991607666
20.852500915527344
21.174999237060547
19.110000610351562
19.352500915527344
19.280000686645508
20.2549991607666
20.520000457763672
20.3700008392334
20.405000686645508
19.975000381469727
19.272499084472656
20.0049991607666
19.782499313354492
20.3075008392334
20.077499389648438
19.627500534057617
19.969999313354492
20.979999542236328
21.329999923706055
20.86750030517578
20.7450008392334
21.079999923706055
20.107500076293945
20.31999969482422
20.25749969482422
20.610000610351562
20.594999313354492
20.1924991607666
20.65999984741211
21.7549991607666
20.8075008392334
19.674999237060547
19.889999389648438
20.959999084472656
21.49250030517578
20.987499237060547
20.84749984741211
21.342500686645508
19.799999237060547
20.282499313354492
19.477500915527344
19.420000076293945
20.274999618530273
20.799999237060547
21.392499923706055
21.114999771118164
20.8174991607666
21.147499084472656
21.332500457763672
21.8075008392334
22.467500686645508
21.227500915527344
20.934999465942383
21.020000457763672
20.540000915527344
20.979999542236328
21.655000686645508
21.577499389648438
20.59000015258789
20.799999237060547
21.565000534057617
21.587499618530273
22.575000762939453
22.450000762939453
20.957500457763672
20.622499465942383
20.5049991607666
20.735000610351562
20.477500915527344
21.094999313354492
21.827499389648438
21.50749969482422
20.627500534057617
19.864999771118164
19.782499313354492
20.735000610351562
21.360000610351562
20.732500076293945
19.662500381469727
20.43000030517578
20.96500015258789
21.247499465942383
20.082500457763672
19.9424991607666
20.43000030517578
20.4424991607666
20.25749969482422
19.232500076293945
19.75
19.545000076293945
18.872499465942383
19.467500686645508
19.712499618530273
18.967500686645508
18.19499969482422
18.90250015258789
19.184999465942383
18.997499465942383
18.927499771118164
18.90999984741211
19.177499771118164
18.327499389648438
18.207500457763672
19.375
19.979999542236328
20.212499618530273
20.19499969482422
20.727500915527344
20.667499542236328
20.30500030517578
19.8075008392334
20.477500915527344
20.889999389648438
20.227500915527344
20.360000610351562
20.024999618530273
19.582500457763672
19.489999771118164
18.725000381469727
18.65999984741211
20.24250030517578
20.27750015258789
21.38249969482422
21.517499923706055
20.799999237060547
21.047500610351562
20.450000762939453
19.672500610351562
19.487499237060547
19.272499084472656
19.885000228881836
19.587499618530273
20.457500457763672
20.207500457763672
20.267499923706055
20.162500381469727
20.55500030517578
20.030000686645508
20.717500686645508
20.74250030517578
20.25749969482422
19.737499237060547
19.4424991607666
19.452499389648438
20.610000610351562
20.21500015258789
19.46500015258789
19.59000015258789
21.334999084472656
21.5049991607666
21.540000915527344
21.502500534057617
21.147499084472656
20.7450008392334
21.450000762939453
20.510000228881836
19.53499984741211
19.815000534057617
21.09749984741211
21.1299991607666
21.325000762939453
20.947500228881836
20.162500381469727
20.75749969482422
20.44499969482422
19.837499618530273
19.670000076293945
18.377500534057617
17.49250030517578
18.00749969482422
19.334999084472656
18.61750030517578
18.3125
19.385000228881836
17.829999923706055
16.22249984741211
16.899999618530273
17.487499237060547
17.887500762939453
17.545000076293945
16.087499618530273
16.190000534057617
16.7549991607666
17.104999542236328
17.315000534057617
17.917499542236328
18.047500610351562
17.7450008392334
17.2450008392334
17.075000762939453
18.350000381469727
18.602500915527344
19.017499923706055
17.452499389648438
16.7549991607666
18.572500228881836
18.665000915527344
17.532499313354492
18.950000762939453
19.55500030517578
19.815000534057617
20.65250015258789
20.364999771118164
20.600000381469727
19.610000610351562
18.454999923706055
19.264999389648438
19.4375
19.762500762939453
19.582500457763672
18.217500686645508
18.584999084472656
17.954999923706055
17.9424991607666
19.165000915527344
18.959999084472656
17.81999969482422
17.667499542236328
17.642499923706055
18.274999618530273
18.012500762939453
17.327499389648438
18.84749984741211
19.635000228881836
20.09749984741211
19.852500915527344
19.3075008392334
18.975000381469727
19.315000534057617
19.677499771118164
19.209999084472656
18.3799991607666
18.012500762939453
17.11750030517578
16.94499969482422
17.657499313354492
18.40999984741211
18.040000915527344
17.86750030517578
16.647499084472656
16.170000076293945
16.267499923706055
16.0674991607666
15.675000190734863
15.7524995803833
16.802499771118164
17.19499969482422
17.514999389648438
17.864999771118164
16.907499313354492
17.55500030517578
17.357500076293945
16.934999465942383
16.274999618530273
16.479999542236328
17.087499618530273
17.235000610351562
16.514999389648438
16.577499389648438
17.63249969482422
18.172500610351562
18.287500381469727
18.842500686645508
18.412500381469727
17.559999465942383
17.022499084472656
17.895000457763672
18.235000610351562
18.4325008392334
19.737499237060547
19.780000686645508
19.167499542236328
18.38249969482422
19.11750030517578
19.459999084472656
20.565000534057617
20.322500228881836
20.139999389648438
19.452499389648438
18.385000228881836
19.56999969482422
18.962499618530273
18.46500015258789
18.377500534057617
19.0
18.802499771118164
18.8799991607666
19.52750015258789
18.860000610351562
18.717500686645508
19.645000457763672
19.145000457763672
19.232500076293945
19.207500457763672
19.610000610351562
20.017499923706055
20.072500228881836
20.674999237060547
20.587499618530273
20.782499313354492
21.647499084472656
21.684999465942383
20.137500762939453
19.767499923706055
20.477500915527344
21.139999389648438
21.719999313354492
22.377500534057617
22.412500381469727
21.354999542236328
21.672500610351562
21.657499313354492
22.657499313354492
23.71500015258789
24.102500915527344
25.014999389648438
24.280000686645508
22.885000228881836
22.75749969482422
22.247499465942383
22.850000381469727
23.417499542236328
22.947500228881836
22.795000076293945
23.372499465942383
22.427499771118164
22.690000534057617
22.395000457763672
22.530000686645508
23.34000015258789
23.772499084472656
24.270000457763672
24.582500457763672
24.454999923706055
23.772499084472656
24.032499313354492
23.667499542236328
23.78499984741211
23.860000610351562
