EpRewMean
0.6760563254356384
0.8011049628257751
1.097499966621399
1.3174999952316284
1.309999942779541
1.315000057220459
1.2450000047683716
1.2174999713897705
1.2050000429153442
1.1675000190734863
1.190000057220459
1.149999976158142
1.1924999952316284
1.215000033378601
1.2949999570846558
1.215000033378601
1.277500033378601
1.337499976158142
1.4049999713897705
1.4075000286102295
1.502500057220459
1.5325000286102295
1.5299999713897705
1.5099999904632568
1.5149999856948853
1.537500023841858
1.6074999570846558
1.5525000095367432
1.627500057220459
1.6100000143051147
1.5674999952316284
1.5924999713897705
1.5824999809265137
1.559999942779541
1.5075000524520874
1.5099999904632568
1.4600000381469727
1.4249999523162842
1.4424999952316284
1.4225000143051147
1.434999942779541
1.3350000381469727
1.1974999904632568
1.1799999475479126
1.215000033378601
1.3550000190734863
1.4900000095367432
1.5724999904632568
1.5575000047683716
1.534999966621399
1.6050000190734863
1.5700000524520874
1.5299999713897705
1.4824999570846558
1.5399999618530273
1.5449999570846558
1.5049999952316284
1.4924999475479126
1.4800000190734863
1.6349999904632568
1.627500057220459
1.6124999523162842
1.5824999809265137
1.5225000381469727
1.534999966621399
1.5175000429153442
1.6124999523162842
1.5724999904632568
1.559999942779541
1.5549999475479126
1.6174999475479126
1.559999942779541
1.6150000095367432
1.5475000143051147
1.497499942779541
1.527500033378601
1.4900000095367432
1.5099999904632568
1.600000023841858
1.6375000476837158
1.6775000095367432
1.7200000286102295
1.715000033378601
1.752500057220459
1.6950000524520874
1.5950000286102295
1.5750000476837158
1.6024999618530273
1.587499976158142
1.5449999570846558
1.5049999952316284
1.5700000524520874
1.6675000190734863
1.5824999809265137
1.5950000286102295
1.5924999713897705
1.6375000476837158
1.722499966621399
1.6325000524520874
1.5750000476837158
1.590000033378601
1.5774999856948853
1.534999966621399
1.527500033378601
1.497499942779541
1.5824999809265137
1.6200000047683716
1.622499942779541
1.5750000476837158
1.6825000047683716
1.6974999904632568
1.7999999523162842
1.774999976158142
1.7300000190734863
1.622499942779541
1.6475000381469727
1.6349999904632568
1.659999966621399
1.5724999904632568
1.6325000524520874
1.5950000286102295
1.6449999809265137
1.6974999904632568
1.715000033378601
1.8174999952316284
1.7649999856948853
1.75
1.7200000286102295
1.6725000143051147
1.6399999856948853
1.715000033378601
1.6924999952316284
1.7200000286102295
1.725000023841858
1.659999966621399
1.752500057220459
1.715000033378601
1.7300000190734863
1.690000057220459
1.684999942779541
1.722499966621399
1.747499942779541
1.7374999523162842
1.7675000429153442
1.8224999904632568
1.934999942779541
1.8849999904632568
1.8650000095367432
1.7825000286102295
1.7675000429153442
1.7699999809265137
1.7625000476837158
1.7400000095367432
1.7074999809265137
1.659999966621399
1.725000023841858
1.6549999713897705
1.7374999523162842
1.7675000429153442
1.7699999809265137
1.7300000190734863
1.7274999618530273
1.7024999856948853
1.8274999856948853
1.815000057220459
1.9275000095367432
1.8825000524520874
1.9199999570846558
1.8875000476837158
1.9175000190734863
1.875
1.815000057220459
1.8049999475479126
1.7975000143051147
1.7949999570846558
1.7625000476837158
1.847499966621399
1.875
2.0
2.1675000190734863
2.0824999809265137
1.9824999570846558
1.9325000047683716
1.8624999523162842
1.9700000286102295
1.940000057220459
1.9149999618530273
1.9550000429153442
2.009999990463257
1.965000033378601
2.015000104904175
1.9924999475479126
2.069999933242798
2.0799999237060547
2.140000104904175
2.125
2.047499895095825
1.8825000524520874
1.7549999952316284
1.774999976158142
1.8450000286102295
1.909999966621399
1.9874999523162842
1.9900000095367432
1.962499976158142
2.0199999809265137
1.9800000190734863
2.0174999237060547
1.9674999713897705
2.0950000286102295
2.0924999713897705
2.1549999713897705
2.0950000286102295
2.1524999141693115
2.2174999713897705
2.1475000381469727
2.180000066757202
2.200000047683716
2.244999885559082
2.2149999141693115
2.115000009536743
2.049999952316284
2.0250000953674316
1.9524999856948853
2.049999952316284
2.0799999237060547
2.007499933242798
2.049999952316284
2.0625
2.067500114440918
2.109999895095825
2.2300000190734863
2.3450000286102295
2.430000066757202
2.4574999809265137
2.194999933242798
2.197499990463257
2.1700000762939453
2.3350000381469727
2.387500047683716
2.4749999046325684
2.4774999618530273
2.4049999713897705
2.3949999809265137
2.3350000381469727
2.4000000953674316
2.432499885559082
2.502500057220459
2.5450000762939453
2.6449999809265137
2.617500066757202
2.559999942779541
2.572499990463257
2.5350000858306885
2.674999952316284
2.7174999713897705
2.9375
3.015000104904175
2.9700000286102295
3.0299999713897705
3.0450000762939453
3.237499952316284
3.305000066757202
3.309999942779541
3.244999885559082
3.325000047683716
3.2850000858306885
3.427500009536743
3.5799999237060547
3.694999933242798
3.555000066757202
3.444999933242798
3.5374999046325684
3.702500104904175
3.859999895095825
3.7850000858306885
3.740000009536743
3.7325000762939453
3.7125000953674316
3.9049999713897705
4.252500057220459
4.275000095367432
4.284999847412109
4.304999828338623
4.21999979019165
3.9725000858306885
3.887500047683716
3.884999990463257
3.797499895095825
3.8475000858306885
3.890000104904175
3.8524999618530273
3.865000009536743
3.865000009536743
3.807499885559082
3.805000066757202
3.742500066757202
3.802500009536743
3.744999885559082
3.9649999141693115
3.927500009536743
3.805000066757202
3.7100000381469727
3.6624999046325684
3.7300000190734863
3.807499885559082
3.8924999237060547
3.950000047683716
3.9749999046325684
4.03000020980835
3.994999885559082
3.867500066757202
3.807499885559082
3.8299999237060547
3.827500104904175
3.9649999141693115
3.947499990463257
3.797499895095825
3.8975000381469727
3.9175000190734863
4.012499809265137
4.03000020980835
3.9625000953674316
4.167500019073486
4.170000076293945
4.125
3.947499990463257
3.940000057220459
4.03000020980835
4.059999942779541
4.302499771118164
4.429999828338623
4.522500038146973
4.642499923706055
4.539999961853027
4.46999979019165
4.462500095367432
4.565000057220459
4.434999942779541
4.457499980926514
4.307499885559082
4.197500228881836
4.239999771118164
4.367499828338623
4.605000019073486
4.764999866485596
4.84250020980835
4.795000076293945
4.730000019073486
4.739999771118164
4.699999809265137
4.772500038146973
4.627500057220459
4.577499866485596
4.635000228881836
4.607500076293945
4.847499847412109
4.840000152587891
4.809999942779541
4.732500076293945
4.625
4.675000190734863
4.690000057220459
4.690000057220459
4.682499885559082
4.692500114440918
4.697500228881836
4.840000152587891
4.815000057220459
4.802499771118164
4.820000171661377
5.017499923706055
5.107500076293945
5.267499923706055
5.315000057220459
5.230000019073486
5.244999885559082
5.230000019073486
5.402500152587891
5.409999847412109
5.599999904632568
5.474999904632568
5.577499866485596
5.472499847412109
5.412499904632568
5.302499771118164
5.255000114440918
5.09499979019165
5.050000190734863
5.010000228881836
4.992499828338623
5.082499980926514
5.099999904632568
5.065000057220459
5.112500190734863
5.177499771118164
5.277500152587891
5.324999809265137
5.5
5.485000133514404
5.422500133514404
5.497499942779541
5.684999942779541
5.662499904632568
5.635000228881836
5.5625
5.582499980926514
5.53000020980835
5.557499885559082
5.510000228881836
5.735000133514404
5.65500020980835
5.625
5.527500152587891
5.565000057220459
5.71750020980835
5.730000019073486
5.757500171661377
5.795000076293945
5.855000019073486
5.949999809265137
6.03000020980835
5.945000171661377
5.885000228881836
5.885000228881836
5.894999980926514
5.945000171661377
5.707499980926514
5.877500057220459
6.012499809265137
6.177499771118164
6.179999828338623
6.264999866485596
6.289999961853027
6.46999979019165
6.574999809265137
6.644999980926514
6.739999771118164
6.585000038146973
6.5
6.382500171661377
6.097499847412109
6.002500057220459
5.965000152587891
5.949999809265137
5.90500020980835
5.962500095367432
5.957499980926514
5.965000152587891
6.074999809265137
6.152500152587891
5.987500190734863
5.96750020980835
6.042500019073486
6.117499828338623
6.28249979019165
6.34499979019165
6.372499942779541
6.65749979019165
6.432499885559082
6.474999904632568
6.697500228881836
6.502500057220459
6.65749979019165
6.462500095367432
6.860000133514404
6.832499980926514
6.9375
7.002500057220459
7.170000076293945
7.139999866485596
7.177499771118164
7.097499847412109
7.170000076293945
7.079999923706055
7.022500038146973
7.050000190734863
7.005000114440918
6.940000057220459
6.732500076293945
6.860000133514404
6.987500190734863
7.099999904632568
7.289999961853027
7.255000114440918
7.107500076293945
6.822500228881836
6.84499979019165
6.724999904632568
6.857500076293945
6.757500171661377
6.795000076293945
7.005000114440918
7.147500038146973
7.397500038146973
7.247499942779541
7.099999904632568
7.175000190734863
7.287499904632568
7.327499866485596
7.34499979019165
7.574999809265137
7.699999809265137
7.795000076293945
7.804999828338623
7.722499847412109
7.704999923706055
7.550000190734863
7.545000076293945
7.684999942779541
7.487500190734863
7.659999847412109
7.659999847412109
7.644999980926514
7.695000171661377
7.65500020980835
7.557499885559082
7.632500171661377
7.614999771118164
7.684999942779541
7.715000152587891
7.605000019073486
7.542500019073486
7.742499828338623
7.679999828338623
7.6875
7.622499942779541
7.412499904632568
7.607500076293945
7.652500152587891
7.679999828338623
7.71999979019165
7.625
7.894999980926514
7.71750020980835
7.46999979019165
7.545000076293945
7.199999809265137
7.324999809265137
7.527500152587891
7.642499923706055
7.704999923706055
7.889999866485596
7.855000019073486
7.635000228881836
7.684999942779541
7.667500019073486
7.675000190734863
7.757500171661377
7.764999866485596
7.659999847412109
7.639999866485596
7.507500171661377
7.557499885559082
7.462500095367432
7.420000076293945
7.445000171661377
7.474999904632568
7.497499942779541
7.567500114440918
7.534999847412109
7.795000076293945
7.597499847412109
7.757500171661377
7.920000076293945
8.067500114440918
8.149999618530273
7.977499961853027
7.762499809265137
7.767499923706055
7.512499809265137
7.835000038146973
7.777500152587891
8.032500267028809
8.047499656677246
8.057499885559082
8.050000190734863
7.817500114440918
7.795000076293945
7.650000095367432
7.767499923706055
7.974999904632568
8.052499771118164
8.107500076293945
8.210000038146973
8.28499984741211
8.475000381469727
8.430000305175781
8.260000228881836
8.0649995803833
7.989999771118164
8.032500267028809
8.104999542236328
8.354999542236328
8.322500228881836
8.390000343322754
8.292499542236328
8.307499885559082
8.232500076293945
8.114999771118164
8.199999809265137
8.397500038146973
8.5024995803833
8.3149995803833
8.305000305175781
8.257499694824219
8.3149995803833
8.270000457763672
8.367500305175781
8.482500076293945
8.345000267028809
8.317500114440918
8.175000190734863
8.057499885559082
8.087499618530273
8.3149995803833
8.422499656677246
8.4375
8.522500038146973
8.4975004196167
8.3100004196167
8.34749984741211
8.319999694824219
8.387499809265137
8.524999618530273
8.59000015258789
8.755000114440918
8.757499694824219
8.604999542236328
8.630000114440918
8.484999656677246
8.470000267028809
8.595000267028809
8.617500305175781
8.682499885559082
8.5649995803833
8.3725004196167
8.407500267028809
8.204999923706055
8.265000343322754
8.520000457763672
8.477499961853027
8.72249984741211
8.78499984741211
8.675000190734863
8.609999656677246
8.702500343322754
8.492500305175781
8.422499656677246
8.569999694824219
8.789999961853027
8.887499809265137
8.925000190734863
8.732500076293945
8.592499732971191
8.574999809265137
8.482500076293945
8.697500228881836
8.742500305175781
8.704999923706055
8.805000305175781
8.557499885559082
8.707500457763672
8.649999618530273
8.619999885559082
8.774999618530273
8.6899995803833
8.892499923706055
8.862500190734863
8.824999809265137
8.944999694824219
8.837499618530273
8.835000038146973
8.774999618530273
8.772500038146973
8.654999732971191
8.5600004196167
8.442500114440918
8.452500343322754
8.547499656677246
9.022500038146973
9.072500228881836
9.057499885559082
8.927499771118164
8.672499656677246
8.654999732971191
8.704999923706055
8.817500114440918
8.962499618530273
9.0600004196167
9.020000457763672
9.045000076293945
9.029999732971191
9.104999542236328
9.007499694824219
9.142499923706055
8.96500015258789
8.952500343322754
8.710000038146973
8.404999732971191
8.447500228881836
8.430000305175781
8.78499984741211
8.987500190734863
8.822500228881836
8.680000305175781
8.6899995803833
8.59000015258789
8.739999771118164
8.800000190734863
8.895000457763672
8.859999656677246
8.970000267028809
8.897500038146973
8.907500267028809
8.914999961853027
9.020000457763672
9.100000381469727
8.914999961853027
8.887499809265137
8.677499771118164
8.582500457763672
8.837499618530273
8.887499809265137
8.957500457763672
9.220000267028809
9.1225004196167
9.069999694824219
9.074999809265137
8.952500343322754
8.800000190734863
8.90999984741211
9.007499694824219
8.96500015258789
9.172499656677246
9.1274995803833
9.02750015258789
9.007499694824219
8.887499809265137
8.762499809265137
8.84749984741211
8.737500190734863
8.522500038146973
8.489999771118164
8.4350004196167
8.515000343322754
8.52750015258789
8.375
8.507499694824219
8.442500114440918
8.522500038146973
8.647500038146973
8.890000343322754
9.077500343322754
9.210000038146973
9.395000457763672
9.162500381469727
8.887499809265137
8.880000114440918
8.952500343322754
9.279999732971191
9.109999656677246
9.0649995803833
9.052499771118164
9.100000381469727
9.017499923706055
9.192500114440918
9.164999961853027
9.050000190734863
9.197500228881836
9.380000114440918
9.292499542236328
9.345000267028809
9.399999618530273
9.260000228881836
9.375
9.545000076293945
9.449999809265137
9.555000305175781
9.595000267028809
9.467499732971191
9.354999542236328
9.287500381469727
9.332500457763672
9.427499771118164
9.427499771118164
9.262499809265137
9.229999542236328
9.210000038146973
9.204999923706055
9.40250015258789
9.547499656677246
9.6225004196167
9.6225004196167
9.65250015258789
9.53499984741211
9.4350004196167
9.4350004196167
9.2524995803833
9.390000343322754
9.602499961853027
9.647500038146973
9.512499809265137
9.4350004196167
9.157500267028809
9.119999885559082
9.300000190734863
9.15999984741211
9.359999656677246
9.359999656677246
9.257499694824219
9.274999618530273
9.407500267028809
9.614999771118164
9.699999809265137
10.0024995803833
9.869999885559082
9.600000381469727
9.694999694824219
9.59749984741211
9.537500381469727
9.515000343322754
9.367500305175781
9.21500015258789
9.357500076293945
9.47249984741211
9.492500305175781
9.484999656677246
9.612500190734863
9.725000381469727
9.520000457763672
9.524999618530273
9.417499542236328
9.335000038146973
9.470000267028809
9.587499618530273
9.454999923706055
9.460000038146973
9.484999656677246
9.492500305175781
9.574999809265137
9.697500228881836
9.664999961853027
9.654999732971191
9.770000457763672
9.545000076293945
9.595000267028809
9.77750015258789
9.952500343322754
9.9350004196167
9.97249984741211
9.697500228881836
9.617500305175781
9.545000076293945
9.529999732971191
9.545000076293945
9.614999771118164
9.765000343322754
9.604999542236328
9.767499923706055
9.770000457763672
9.680000305175781
9.682499885559082
9.5024995803833
9.354999542236328
9.367500305175781
9.345000267028809
9.262499809265137
9.1899995803833
9.395000457763672
9.329999923706055
9.382499694824219
9.307499885559082
9.382499694824219
9.255000114440918
9.047499656677246
9.15999984741211
9.175000190734863
9.414999961853027
9.442500114440918
9.417499542236328
9.414999961853027
9.40999984741211
9.420000076293945
9.557499885559082
9.587499618530273
9.632499694824219
9.574999809265137
9.604999542236328
9.46500015258789
9.614999771118164
9.529999732971191
9.517499923706055
9.682499885559082
9.482500076293945
9.667499542236328
9.904999732971191
10.074999809265137
10.047499656677246
10.085000038146973
10.085000038146973
9.970000267028809
9.954999923706055
10.147500038146973
10.2524995803833
9.989999771118164
9.835000038146973
9.640000343322754
9.899999618530273
10.082500457763672
10.297499656677246
10.362500190734863
10.3774995803833
10.4399995803833
10.5600004196167
10.300000190734863
10.182499885559082
10.03499984741211
10.1274995803833
9.979999542236328
9.977499961853027
10.015000343322754
10.132499694824219
10.234999656677246
10.162500381469727
10.100000381469727
10.0600004196167
10.077500343322754
10.095000267028809
10.132499694824219
10.420000076293945
10.345000267028809
10.412500381469727
10.452500343322754
10.399999618530273
10.180000305175781
10.329999923706055
10.537500381469727
10.835000038146973
10.922499656677246
11.012499809265137
10.635000228881836
10.380000114440918
10.22249984741211
10.242500305175781
10.369999885559082
10.46500015258789
10.112500190734863
9.949999809265137
9.890000343322754
9.97249984741211
10.359999656677246
10.407500267028809
10.390000343322754
10.417499542236328
10.640000343322754
10.602499961853027
10.630000114440918
10.75
10.835000038146973
10.630000114440918
10.385000228881836
10.1225004196167
9.90250015258789
9.84749984741211
9.962499618530273
10.039999961853027
10.0
10.1899995803833
10.274999618530273
10.3774995803833
10.199999809265137
10.425000190734863
10.194999694824219
10.175000190734863
10.637499809265137
10.537500381469727
10.737500190734863
10.680000305175781
10.462499618530273
10.354999542236328
10.0625
10.0649995803833
10.114999771118164
10.0625
10.039999961853027
10.0024995803833
9.977499961853027
10.037500381469727
10.1274995803833
10.0625
9.907500267028809
9.885000228881836
9.947500228881836
10.020000457763672
10.087499618530273
10.0
10.085000038146973
9.8149995803833
9.567500114440918
9.595000267028809
9.479999542236328
9.635000228881836
9.887499809265137
10.112500190734863
10.09000015258789
10.172499656677246
10.087499618530273
10.0024995803833
9.867500305175781
9.9375
9.979999542236328
10.135000228881836
10.319999694824219
10.242500305175781
10.017499923706055
9.765000343322754
9.579999923706055
9.65250015258789
9.824999809265137
10.032500267028809
10.112500190734863
10.5024995803833
10.5649995803833
10.454999923706055
10.220000267028809
9.914999961853027
9.770000457763672
9.917499542236328
10.020000457763672
10.042499542236328
10.217499732971191
10.032500267028809
10.017499923706055
9.922499656677246
9.782500267028809
9.819999694824219
9.712499618530273
9.762499809265137
10.092499732971191
10.300000190734863
10.6875
10.787500381469727
10.467499732971191
10.637499809265137
10.225000381469727
10.225000381469727
10.077500343322754
10.229999542236328
10.28499984741211
10.397500038146973
10.577500343322754
10.442500114440918
10.5625
10.457500457763672
10.332500457763672
10.404999732971191
10.467499732971191
10.654999732971191
10.789999961853027
10.987500190734863
10.702500343322754
10.65999984741211
10.664999961853027
10.307499885559082
10.542499542236328
10.467499732971191
10.452500343322754
10.890000343322754
10.77750015258789
10.7475004196167
10.595000267028809
10.619999885559082
10.8149995803833
11.0625
11.039999961853027
10.944999694824219
11.087499618530273
10.587499618530273
10.479999542236328
10.442500114440918
10.260000228881836
10.177499771118164
10.279999732971191
10.172499656677246
10.395000457763672
10.532500267028809
10.704999923706055
10.5600004196167
10.470000267028809
10.449999809265137
10.319999694824219
10.385000228881836
10.229999542236328
10.4975004196167
10.65999984741211
10.677499771118164
10.682499885559082
10.649999618530273
10.6225004196167
10.6850004196167
10.614999771118164
10.522500038146973
10.337499618530273
10.5
10.720000267028809
11.055000305175781
10.835000038146973
10.932499885559082
10.960000038146973
11.072500228881836
11.282500267028809
11.145000457763672
10.925000190734863
10.664999961853027
10.734999656677246
10.922499656677246
11.177499771118164
11.449999809265137
11.119999885559082
10.904999732971191
10.869999885559082
10.630000114440918
10.489999771118164
10.462499618530273
10.237500190734863
10.699999809265137
10.954999923706055
11.0649995803833
11.267499923706055
10.8100004196167
10.827500343322754
10.667499542236328
10.892499923706055
10.802499771118164
10.607500076293945
10.787500381469727
10.647500038146973
10.510000228881836
10.720000267028809
10.657500267028809
10.890000343322754
11.082500457763672
11.362500190734863
11.654999732971191
11.505000114440918
11.287500381469727
11.172499656677246
10.927499771118164
11.147500038146973
11.210000038146973
11.052499771118164
10.760000228881836
10.630000114440918
10.789999961853027
10.864999771118164
10.954999923706055
11.09000015258789
11.067500114440918
10.967499732971191
10.859999656677246
10.702500343322754
10.649999618530273
10.949999809265137
10.835000038146973
10.7475004196167
10.717499732971191
10.479999542236328
10.654999732971191
10.842499732971191
10.862500190734863
11.020000457763672
10.692500114440918
10.5024995803833
10.3100004196167
10.170000076293945
10.225000381469727
10.422499656677246
10.6850004196167
10.797499656677246
10.797499656677246
11.029999732971191
10.982500076293945
10.895000457763672
10.912500381469727
10.670000076293945
10.907500267028809
10.864999771118164
10.84000015258789
10.957500457763672
10.949999809265137
11.147500038146973
11.0600004196167
11.237500190734863
10.989999771118164
11.117500305175781
11.444999694824219
11.197500228881836
11.232500076293945
10.664999961853027
10.547499656677246
10.475000381469727
10.75
11.012499809265137
10.899999618530273
11.029999732971191
11.130000114440918
11.157500267028809
11.202500343322754
10.760000228881836
10.667499542236328
10.637499809265137
10.494999885559082
10.457500457763672
10.289999961853027
10.272500038146973
10.425000190734863
10.649999618530273
10.632499694824219
10.755000114440918
10.694999694824219
10.207500457763672
10.447500228881836
10.3149995803833
10.664999961853027
10.832500457763672
10.742500305175781
10.727499961853027
10.922499656677246
10.975000381469727
11.327500343322754
11.52750015258789
11.34000015258789
11.512499809265137
11.037500381469727
10.975000381469727
11.057499885559082
11.197500228881836
11.569999694824219
11.702500343322754
11.147500038146973
10.949999809265137
10.895000457763672
11.045000076293945
11.40250015258789
11.460000038146973
11.265000343322754
11.255000114440918
11.404999732971191
11.03499984741211
10.962499618530273
10.65250015258789
11.0625
11.175000190734863
11.292499542236328
11.305000305175781
11.287500381469727
11.492500305175781
11.392499923706055
11.3149995803833
11.4350004196167
11.520000457763672
11.657500267028809
11.567500114440918
11.555000305175781
10.992500305175781
10.962499618530273
10.984999656677246
10.882499694824219
11.119999885559082
11.082500457763672
10.979999542236328
11.220000267028809
11.227499961853027
11.199999809265137
11.550000190734863
11.649999618530273
11.667499542236328
11.8100004196167
11.734999656677246
11.645000457763672
11.779999732971191
11.850000381469727
11.77750015258789
11.947500228881836
12.007499694824219
12.072500228881836
11.852499961853027
11.952500343322754
12.0024995803833
11.899999618530273
12.0600004196167
11.800000190734863
11.614999771118164
11.34000015258789
11.59000015258789
11.657500267028809
11.572500228881836
11.5024995803833
11.444999694824219
11.547499656677246
11.432499885559082
11.482500076293945
11.737500190734863
11.774999618530273
11.992500305175781
11.602499961853027
11.720000267028809
11.4375
11.260000228881836
11.292499542236328
11.050000190734863
10.6899995803833
11.182499885559082
11.137499809265137
11.197500228881836
11.012499809265137
11.135000228881836
11.132499694824219
11.27750015258789
11.432499885559082
11.350000381469727
11.539999961853027
11.539999961853027
11.612500190734863
11.720000267028809
11.649999618530273
11.642499923706055
11.427499771118164
11.392499923706055
11.404999732971191
11.425000190734863
11.444999694824219
11.367500305175781
11.427499771118164
11.427499771118164
11.772500038146973
11.854999542236328
12.145000457763672
12.3125
12.09000015258789
12.21500015258789
11.947500228881836
11.6274995803833
11.595000267028809
11.15250015258789
11.09749984741211
11.112500190734863
11.289999961853027
11.442500114440918
11.635000228881836
11.604999542236328
11.664999961853027
11.725000381469727
11.585000038146973
11.380000114440918
11.257499694824219
11.352499961853027
11.430000305175781
11.649999618530273
11.864999771118164
12.057499885559082
11.979999542236328
12.047499656677246
12.15250015258789
11.904999732971191
11.827500343322754
11.324999809265137
11.167499542236328
10.859999656677246
10.829999923706055
11.012499809265137
11.147500038146973
11.295000076293945
11.0600004196167
11.442500114440918
11.305000305175781
11.577500343322754
11.6875
11.515000343322754
11.47249984741211
11.162500381469727
11.182499885559082
11.112500190734863
11.095000267028809
10.944999694824219
10.694999694824219
10.835000038146973
11.170000076293945
11.112500190734863
11.412500381469727
11.114999771118164
11.050000190734863
10.869999885559082
11.6850004196167
11.77750015258789
12.095000267028809
12.15999984741211
11.382499694824219
11.2524995803833
10.904999732971191
11.239999771118164
11.779999732971191
12.09000015258789
12.25
12.079999923706055
12.329999923706055
12.28499984741211
12.567500114440918
12.46500015258789
12.297499656677246
12.34749984741211
12.1850004196167
12.067500114440918
11.720000267028809
11.6875
11.319999694824219
11.322500228881836
11.172499656677246
11.194999694824219
11.390000343322754
11.512499809265137
11.59749984741211
12.149999618530273
12.085000038146973
11.922499656677246
11.84000015258789
11.729999542236328
11.364999771118164
11.260000228881836
10.984999656677246
11.0600004196167
11.0649995803833
11.359999656677246
11.720000267028809
12.107500076293945
12.487500190734863
12.282500267028809
12.302499771118164
12.175000190734863
12.020000457763672
12.390000343322754
12.467499732971191
12.609999656677246
13.085000038146973
12.767499923706055
12.317500114440918
12.1899995803833
12.350000381469727
12.362500190734863
12.444999694824219
12.057499885559082
11.489999771118164
11.675000190734863
11.712499618530273
12.012499809265137
12.430000305175781
12.449999809265137
12.265000343322754
12.172499656677246
11.632499694824219
11.664999961853027
11.5600004196167
11.837499618530273
12.229999542236328
12.404999732971191
12.657500267028809
12.489999771118164
12.289999961853027
12.305000305175781
12.0649995803833
12.077500343322754
12.085000038146973
12.204999923706055
12.337499618530273
12.595000267028809
12.354999542236328
12.322500228881836
12.302499771118164
12.442500114440918
12.5
12.319999694824219
12.114999771118164
12.100000381469727
12.1274995803833
12.020000457763672
12.234999656677246
11.9975004196167
12.295000076293945
12.609999656677246
12.367500305175781
12.635000228881836
12.710000038146973
13.162500381469727
13.390000343322754
13.0649995803833
13.072500228881836
12.542499542236328
12.267499923706055
12.335000038146973
11.967499732971191
11.90999984741211
11.857500076293945
11.864999771118164
12.267499923706055
12.630000114440918
12.75
12.617500305175781
12.507499694824219
12.279999732971191
12.4375
12.375
12.387499809265137
12.572500228881836
12.244999885559082
12.3100004196167
12.337499618530273
12.082500457763672
12.109999656677246
12.047499656677246
12.1274995803833
12.510000228881836
12.912500381469727
12.712499618530273
12.712499618530273
12.585000038146973
