EpRewMean
-0.5325000286102295
-0.5400000214576721
-0.6825000047683716
-0.6025000214576721
-0.7124999761581421
-0.7950000166893005
-0.7275000214576721
-0.6524999737739563
-0.6974999904632568
-0.8575000166893005
-0.7950000166893005
-0.625
-0.5724999904632568
-0.6800000071525574
-0.5674999952316284
-0.6299999952316284
-0.6700000166893005
-0.5375000238418579
-0.44999998807907104
-0.8450000286102295
-0.6299999952316284
-0.39250001311302185
-0.6075000166893005
-0.48750001192092896
-0.800000011920929
-0.7049999833106995
-0.4975000023841858
-0.5874999761581421
-0.612500011920929
-0.512499988079071
-0.5649999976158142
-0.6449999809265137
-0.6549999713897705
-0.47999998927116394
-0.6200000047683716
-0.4399999976158142
-0.5575000047683716
-0.5174999833106995
-0.45249998569488525
-0.4000000059604645
-0.2224999964237213
-0.16249999403953552
0.02500000037252903
-0.03500000014901161
-0.05999999865889549
0.07999999821186066
0.16500000655651093
0.09000000357627869
0.2199999988079071
0.09749999642372131
0.26750001311302185
0.18250000476837158
0.2750000059604645
0.39500001072883606
0.23250000178813934
0.42500001192092896
0.3050000071525574
0.3449999988079071
0.33000001311302185
0.4300000071525574
0.4350000023841858
0.38999998569488525
0.3799999952316284
0.30000001192092896
0.36500000953674316
0.38999998569488525
0.4350000023841858
0.4975000023841858
0.612500011920929
0.5849999785423279
0.4950000047683716
0.5774999856948853
0.6000000238418579
0.7549999952316284
0.6575000286102295
0.800000011920929
0.8374999761581421
0.8949999809265137
0.9574999809265137
0.9975000023841858
0.9674999713897705
1.0425000190734863
1.0575000047683716
1.0824999809265137
1.1150000095367432
1.497499942779541
1.034999966621399
1.4800000190734863
1.3875000476837158
1.5750000476837158
1.5449999570846558
1.9175000190734863
1.75
1.9325000047683716
1.9149999618530273
1.9199999570846558
1.899999976158142
2.505000114440918
2.255000114440918
2.547499895095825
2.375
3.012500047683716
2.7200000286102295
3.1649999618530273
2.9574999809265137
2.944999933242798
3.2925000190734863
2.934999942779541
3.117500066757202
3.190000057220459
3.1475000381469727
3.0250000953674316
4.0
4.012499809265137
3.9024999141693115
3.265000104904175
4.545000076293945
4.477499961853027
4.172500133514404
4.380000114440918
4.427499771118164
4.897500038146973
5.505000114440918
4.897500038146973
4.90749979019165
5.277500152587891
4.697500228881836
5.247499942779541
4.954999923706055
5.337500095367432
5.962500095367432
5.942500114440918
5.409999847412109
5.980000019073486
5.494999885559082
6.377500057220459
7.039999961853027
6.105000019073486
6.747499942779541
5.497499942779541
6.817500114440918
7.272500038146973
7.789999961853027
8.0600004196167
7.797500133514404
7.349999904632568
7.192500114440918
8.137499809265137
7.494999885559082
7.335000038146973
8.289999961853027
8.170000076293945
8.462499618530273
9.0625
9.78499984741211
10.404999732971191
9.682499885559082
9.3725004196167
9.897500038146973
8.859999656677246
9.045000076293945
9.835000038146973
9.694999694824219
10.27750015258789
10.387499809265137
10.930000305175781
11.164999961853027
10.452500343322754
11.602499961853027
11.232500076293945
10.954999923706055
11.617500305175781
11.59749984741211
11.0625
11.987500190734863
11.84000015258789
12.047499656677246
12.720000267028809
12.15250015258789
12.512499809265137
13.02750015258789
13.262499809265137
13.385000228881836
12.212499618530273
12.077500343322754
12.897500038146973
13.529999732971191
13.4375
13.59749984741211
13.967499732971191
12.772500038146973
13.414999961853027
14.512499809265137
14.819999694824219
15.362500190734863
14.585000038146973
14.4375
14.350000381469727
15.162500381469727
16.280000686645508
16.612499237060547
17.059999465942383
17.469999313354492
16.2450008392334
16.049999237060547
15.682499885559082
15.914999961853027
16.157499313354492
16.252500534057617
16.489999771118164
16.69499969482422
17.467500686645508
18.052499771118164
18.295000076293945
16.727500915527344
16.649999618530273
16.842500686645508
16.899999618530273
17.542499542236328
17.81999969482422
16.24250030517578
15.885000228881836
17.4325008392334
18.270000457763672
17.52750015258789
17.71500015258789
17.8075008392334
17.797500610351562
18.012500762939453
17.93000030517578
17.8125
18.142499923706055
18.655000686645508
18.420000076293945
17.88249969482422
18.46500015258789
18.989999771118164
18.7549991607666
17.920000076293945
18.3125
18.360000610351562
18.3075008392334
18.302499771118164
19.6299991607666
19.7450008392334
19.112499237060547
19.27750015258789
19.177499771118164
19.042499542236328
19.602500915527344
18.987499237060547
18.917499542236328
18.30500030517578
18.5575008392334
19.1924991607666
18.915000915527344
19.217500686645508
18.7450008392334
19.024999618530273
18.65250015258789
19.15999984741211
19.2450008392334
19.700000762939453
20.052499771118164
19.487499237060547
19.042499542236328
19.217500686645508
19.662500381469727
19.387500762939453
19.662500381469727
20.077499389648438
20.46500015258789
19.915000915527344
20.18000030517578
19.292499542236328
20.454999923706055
20.864999771118164
20.5575008392334
20.3125
20.325000762939453
20.0575008392334
19.912500381469727
19.540000915527344
19.135000228881836
19.40250015258789
19.645000457763672
19.6875
20.030000686645508
19.662500381469727
20.040000915527344
20.155000686645508
19.912500381469727
19.862499237060547
20.05500030517578
20.575000762939453
20.3174991607666
20.190000534057617
20.552499771118164
21.204999923706055
21.137500762939453
21.172500610351562
20.864999771118164
20.327499389648438
19.959999084472656
19.864999771118164
19.90250015258789
20.06999969482422
20.422500610351562
20.447500228881836
20.427499771118164
20.5575008392334
20.524999618530273
20.607500076293945
19.947500228881836
20.3799991607666
20.799999237060547
20.885000228881836
19.59749984741211
19.88249969482422
20.86750030517578
20.7549991607666
20.549999237060547
20.717500686645508
20.68000030517578
20.417499542236328
20.53499984741211
19.607500076293945
20.145000457763672
20.8174991607666
21.110000610351562
20.915000915527344
20.15999984741211
20.229999542236328
20.697500228881836
21.3700008392334
21.63249969482422
21.047500610351562
20.3799991607666
20.627500534057617
21.49250030517578
22.00749969482422
22.0
21.8125
21.84749984741211
21.415000915527344
21.309999465942383
21.237499237060547
21.729999542236328
21.952499389648438
21.21500015258789
21.417499542236328
21.572500228881836
21.667499542236328
22.045000076293945
21.514999389648438
20.610000610351562
20.952499389648438
21.020000457763672
21.6875
20.709999084472656
20.452499389648438
20.454999923706055
21.127500534057617
22.052499771118164
21.907499313354492
21.260000228881836
22.170000076293945
21.982500076293945
22.017499923706055
21.282499313354492
21.524999618530273
20.979999542236328
21.21500015258789
20.72249984741211
21.00749969482422
21.729999542236328
21.4375
21.174999237060547
21.3700008392334
22.037500381469727
22.020000457763672
21.927499771118164
22.315000534057617
22.3700008392334
21.94499969482422
21.05500030517578
20.655000686645508
20.457500457763672
20.602500915527344
20.799999237060547
20.90999984741211
21.1299991607666
21.797500610351562
21.989999771118164
21.15999984741211
21.045000076293945
20.957500457763672
21.075000762939453
21.327499389648438
21.487499237060547
22.1299991607666
21.145000457763672
20.260000228881836
19.962499618530273
20.614999771118164
20.86750030517578
20.762500762939453
21.434999465942383
22.155000686645508
22.017499923706055
21.852500915527344
21.502500534057617
21.657499313354492
21.827499389648438
22.104999542236328
22.0625
21.982500076293945
22.02750015258789
22.174999237060547
22.15999984741211
21.834999084472656
22.6875
22.895000457763672
23.15999984741211
22.514999389648438
22.395000457763672
22.295000076293945
22.184999465942383
22.27750015258789
22.582500457763672
22.78499984741211
21.829999923706055
21.645000457763672
21.96500015258789
22.709999084472656
22.77750015258789
22.802499771118164
22.045000076293945
21.97249984741211
21.832500457763672
22.122499465942383
22.462499618530273
22.34000015258789
22.84000015258789
23.05500030517578
23.037500381469727
22.827499389648438
22.667499542236328
22.889999389648438
22.989999771118164
22.737499237060547
22.174999237060547
22.200000762939453
22.264999389648438
22.6875
22.575000762939453
22.642499923706055
22.34749984741211
22.587499618530273
22.677499771118164
22.6924991607666
22.88249969482422
23.139999389648438
23.012500762939453
23.0575008392334
23.225000381469727
23.375
22.84749984741211
23.172500610351562
23.049999237060547
23.502500534057617
23.252500534057617
23.34749984741211
23.25749969482422
23.6200008392334
22.90250015258789
23.2549991607666
22.969999313354492
22.987499237060547
22.665000915527344
23.09749984741211
23.014999389648438
23.092500686645508
23.417499542236328
23.225000381469727
22.90999984741211
22.622499465942383
22.407499313354492
22.299999237060547
22.40250015258789
23.200000762939453
23.447500228881836
23.5049991607666
23.274999618530273
23.274999618530273
23.1924991607666
23.112499237060547
22.752500534057617
22.459999084472656
22.762500762939453
22.607500076293945
23.014999389648438
23.09749984741211
23.375
23.40250015258789
23.11750030517578
22.452499389648438
22.147499084472656
22.2450008392334
22.799999237060547
22.954999923706055
22.665000915527344
22.399999618530273
22.78499984741211
23.30500030517578
22.520000457763672
22.292499542236328
22.397499084472656
22.872499465942383
22.842500686645508
23.047500610351562
23.087499618530273
23.1825008392334
23.65999984741211
23.704999923706055
23.28499984741211
23.24250030517578
23.032499313354492
23.082500457763672
23.614999771118164
23.852500915527344
23.462499618530273
23.4325008392334
22.860000610351562
23.045000076293945
23.247499465942383
23.642499923706055
23.8174991607666
24.270000457763672
23.982500076293945
23.719999313354492
23.655000686645508
23.65999984741211
23.665000915527344
24.139999389648438
24.670000076293945
24.337499618530273
24.157499313354492
23.887500762939453
23.575000762939453
23.774999618530273
23.440000534057617
23.09000015258789
23.475000381469727
24.1299991607666
23.71500015258789
23.207500457763672
23.262500762939453
23.6200008392334
23.697500228881836
24.13249969482422
24.69499969482422
24.299999237060547
23.15999984741211
23.36750030517578
23.864999771118164
23.55500030517578
23.6299991607666
23.764999389648438
23.74250030517578
23.59749984741211
23.90999984741211
23.809999465942383
23.46500015258789
23.482500076293945
23.790000915527344
23.540000915527344
24.05500030517578
23.709999084472656
23.200000762939453
22.552499771118164
23.420000076293945
24.2549991607666
24.3075008392334
23.957500457763672
23.612499237060547
23.959999084472656
24.260000228881836
24.020000457763672
24.047500610351562
23.90999984741211
23.915000915527344
23.967500686645508
23.997499465942383
24.299999237060547
24.799999237060547
24.657499313354492
24.475000381469727
24.287500381469727
24.2549991607666
24.709999084472656
24.239999771118164
24.3075008392334
24.552499771118164
24.752500534057617
24.102500915527344
23.392499923706055
24.229999542236328
24.415000915527344
23.719999313354492
23.420000076293945
23.547500610351562
23.774999618530273
23.334999084472656
23.252500534057617
23.877500534057617
23.84749984741211
23.387500762939453
23.477500915527344
23.822500228881836
23.575000762939453
24.137500762939453
24.34749984741211
24.09000015258789
23.915000915527344
23.420000076293945
23.662500381469727
23.862499237060547
24.47249984741211
24.407499313354492
23.954999923706055
23.90250015258789
24.112499237060547
23.614999771118164
23.427499771118164
23.837499618530273
24.252500534057617
24.524999618530273
24.762500762939453
23.957500457763672
23.799999237060547
24.235000610351562
24.34749984741211
23.825000762939453
22.655000686645508
22.872499465942383
23.139999389648438
23.197500228881836
23.520000457763672
24.104999542236328
24.227500915527344
23.962499618530273
23.770000457763672
24.049999237060547
23.725000381469727
24.037500381469727
24.127500534057617
24.059999465942383
24.462499618530273
24.170000076293945
24.6299991607666
23.72249984741211
22.780000686645508
23.3700008392334
24.107500076293945
24.1200008392334
24.165000915527344
23.84749984741211
23.989999771118164
24.09000015258789
23.729999542236328
24.25
23.844999313354492
24.075000762939453
24.84000015258789
24.739999771118164
24.177499771118164
23.9375
23.78499984741211
23.6825008392334
24.1299991607666
24.13249969482422
23.950000762939453
23.90250015258789
23.99250030517578
23.827499389648438
24.047500610351562
24.565000534057617
24.727500915527344
24.510000228881836
24.270000457763672
24.157499313354492
23.887500762939453
24.09749984741211
24.28499984741211
24.5625
24.537500381469727
24.219999313354492
23.795000076293945
24.219999313354492
24.2549991607666
24.704999923706055
24.727500915527344
24.88249969482422
24.65999984741211
23.799999237060547
24.065000534057617
23.572500228881836
23.454999923706055
23.697500228881836
24.612499237060547
24.2549991607666
23.737499237060547
24.4375
24.68000030517578
24.697500228881836
24.872499465942383
25.06999969482422
24.802499771118164
24.604999542236328
24.8700008392334
24.542499542236328
24.782499313354492
24.88249969482422
24.96500015258789
24.53499984741211
24.3125
24.809999465942383
24.162500381469727
24.540000915527344
24.5625
24.4424991607666
24.899999618530273
24.862499237060547
25.392499923706055
24.97249984741211
24.475000381469727
24.88249969482422
25.362499237060547
25.0575008392334
25.114999771118164
24.520000457763672
24.52750015258789
24.475000381469727
24.700000762939453
24.782499313354492
24.997499465942383
24.872499465942383
24.622499465942383
24.325000762939453
24.767499923706055
24.977500915527344
24.36750030517578
24.385000228881836
24.697500228881836
24.559999465942383
24.592500686645508
24.9950008392334
24.8700008392334
25.357500076293945
24.950000762939453
24.512500762939453
23.684999465942383
23.8799991607666
24.1299991607666
24.702499389648438
24.6200008392334
24.204999923706055
23.362499237060547
23.469999313354492
23.86750030517578
24.424999237060547
24.447500228881836
24.24250030517578
24.202499389648438
24.47249984741211
24.5674991607666
24.357500076293945
24.655000686645508
24.502500534057617
24.357500076293945
23.907499313354492
24.03499984741211
23.982500076293945
23.579999923706055
24.125
24.415000915527344
24.27750015258789
24.040000915527344
24.542499542236328
24.469999313354492
24.19499969482422
24.415000915527344
24.125
23.93000030517578
23.469999313354492
23.3174991607666
22.885000228881836
24.0049991607666
24.047500610351562
24.045000076293945
23.915000915527344
24.4375
24.377500534057617
24.59749984741211
24.4424991607666
23.642499923706055
24.047500610351562
24.247499465942383
24.127500534057617
24.1299991607666
23.787500381469727
23.962499618530273
24.020000457763672
24.092500686645508
23.862499237060547
24.59000015258789
23.852500915527344
22.940000534057617
22.424999237060547
22.147499084472656
22.3075008392334
22.6875
22.86750030517578
22.395000457763672
22.364999771118164
22.622499465942383
23.412500381469727
23.8700008392334
24.032499313354492
23.645000457763672
22.967500686645508
22.982500076293945
23.0049991607666
24.022499084472656
24.125
24.34000015258789
24.389999389648438
24.5575008392334
24.514999389648438
24.267499923706055
24.547500610351562
24.31999969482422
23.299999237060547
23.059999465942383
23.467500686645508
23.082500457763672
23.297500610351562
22.454999923706055
22.299999237060547
22.344999313354492
22.34000015258789
22.27750015258789
22.729999542236328
23.5049991607666
23.364999771118164
23.462499618530273
24.030000686645508
23.9325008392334
23.7549991607666
23.717500686645508
23.25749969482422
23.512500762939453
23.559999465942383
23.15999984741211
22.895000457763672
22.357500076293945
22.50749969482422
22.979999542236328
22.69499969482422
22.565000534057617
22.670000076293945
23.28499984741211
23.440000534057617
24.042499542236328
24.110000610351562
23.667499542236328
23.127500534057617
23.469999313354492
23.917499542236328
23.547500610351562
23.8799991607666
23.895000457763672
23.362499237060547
23.420000076293945
23.875
23.872499465942383
23.735000610351562
23.967500686645508
23.587499618530273
23.860000610351562
24.49250030517578
24.5575008392334
24.225000381469727
23.604999542236328
23.690000534057617
23.68000030517578
24.190000534057617
23.5049991607666
23.81999969482422
23.68000030517578
23.885000228881836
24.299999237060547
24.204999923706055
24.53499984741211
24.31999969482422
24.412500381469727
24.690000534057617
24.375
23.957500457763672
24.0049991607666
24.170000076293945
24.09749984741211
24.072500228881836
24.6200008392334
24.47249984741211
24.4950008392334
24.72249984741211
24.3075008392334
24.262500762939453
24.44499969482422
24.575000762939453
24.517499923706055
24.549999237060547
24.25749969482422
24.1924991607666
24.862499237060547
25.232500076293945
25.19499969482422
25.104999542236328
25.30500030517578
25.030000686645508
24.65250015258789
24.614999771118164
23.857500076293945
23.565000534057617
23.969999313354492
24.600000381469727
23.954999923706055
24.094999313354492
24.270000457763672
23.947500228881836
24.079999923706055
24.145000457763672
24.020000457763672
24.565000534057617
24.0
24.09749984741211
23.657499313354492
23.899999618530273
24.267499923706055
24.2549991607666
24.010000228881836
24.622499465942383
24.802499771118164
24.917499542236328
24.107500076293945
24.157499313354492
23.989999771118164
24.21500015258789
24.360000610351562
24.2450008392334
23.885000228881836
23.802499771118164
24.607500076293945
25.50749969482422
25.280000686645508
23.967500686645508
23.397499084472656
23.8799991607666
24.21500015258789
24.092500686645508
24.565000534057617
24.184999465942383
23.93000030517578
24.47249984741211
24.899999618530273
24.65250015258789
24.262500762939453
24.372499465942383
24.485000610351562
24.68000030517578
25.037500381469727
24.967500686645508
24.405000686645508
23.97249984741211
24.065000534057617
24.200000762939453
24.264999389648438
24.655000686645508
24.610000610351562
24.607500076293945
24.267499923706055
24.670000076293945
24.795000076293945
24.922500610351562
24.985000610351562
24.635000228881836
24.854999542236328
24.579999923706055
24.65999984741211
24.920000076293945
24.892499923706055
24.337499618530273
24.377500534057617
24.475000381469727
24.482500076293945
24.735000610351562
25.022499084472656
24.7450008392334
24.31999969482422
23.90999984741211
24.087499618530273
24.3799991607666
24.149999618530273
23.912500381469727
24.247499465942383
24.09749984741211
24.52750015258789
24.477500915527344
24.69499969482422
24.90999984741211
24.600000381469727
24.267499923706055
23.802499771118164
23.662500381469727
24.020000457763672
24.350000381469727
24.50749969482422
24.612499237060547
24.797500610351562
24.834999084472656
25.107500076293945
25.6299991607666
25.52750015258789
25.15999984741211
24.99250030517578
24.684999465942383
24.385000228881836
24.052499771118164
24.037500381469727
24.56999969482422
24.610000610351562
24.592500686645508
24.985000610351562
24.885000228881836
24.59000015258789
24.53499984741211
24.712499618530273
24.412500381469727
24.25749969482422
23.887500762939453
23.940000534057617
24.565000534057617
24.427499771118164
24.822500228881836
24.487499237060547
24.917499542236328
25.02750015258789
25.4325008392334
25.545000076293945
25.3125
24.6299991607666
24.302499771118164
24.989999771118164
24.917499542236328
24.612499237060547
24.844999313354492
24.612499237060547
24.7549991607666
24.844999313354492
25.200000762939453
25.420000076293945
25.24250030517578
24.545000076293945
24.280000686645508
24.22249984741211
24.302499771118164
24.342500686645508
24.739999771118164
24.987499237060547
25.042499542236328
25.059999465942383
25.024999618530273
25.1825008392334
25.260000228881836
25.252500534057617
25.25
25.452499389648438
25.014999389648438
24.86750030517578
25.3075008392334
24.842500686645508
24.479999542236328
24.514999389648438
24.487499237060547
24.885000228881836
25.262500762939453
24.872499465942383
24.6875
24.657499313354492
24.389999389648438
24.717500686645508
24.747499465942383
24.9325008392334
24.7450008392334
24.372499465942383
24.542499542236328
25.112499237060547
25.579999923706055
25.287500381469727
24.987499237060547
24.96500015258789
25.112499237060547
24.802499771118164
24.094999313354492
24.15250015258789
24.295000076293945
23.977500915527344
24.512500762939453
24.84749984741211
25.174999237060547
24.862499237060547
24.672500610351562
24.227500915527344
24.102500915527344
24.204999923706055
24.309999465942383
24.602500915527344
24.482500076293945
24.704999923706055
24.770000457763672
25.110000610351562
24.927499771118164
24.827499389648438
24.69499969482422
25.017499923706055
25.165000915527344
24.649999618530273
24.622499465942383
24.522499084472656
24.8700008392334
24.739999771118164
24.6200008392334
24.799999237060547
24.782499313354492
24.84000015258789
24.950000762939453
25.344999313354492
25.1200008392334
24.915000915527344
24.975000381469727
25.145000457763672
25.155000686645508
24.850000381469727
24.4950008392334
24.822500228881836
25.092500686645508
25.024999618530273
24.84000015258789
25.517499923706055
25.239999771118164
24.832500457763672
24.802499771118164
25.082500457763672
25.045000076293945
25.09000015258789
25.014999389648438
24.627500534057617
24.434999465942383
24.024999618530273
24.55500030517578
24.877500534057617
25.447500228881836
25.417499542236328
25.225000381469727
24.892499923706055
24.1825008392334
23.9375
25.2549991607666
25.422500610351562
25.424999237060547
25.142499923706055
25.162500381469727
24.735000610351562
24.059999465942383
24.364999771118164
24.6299991607666
24.4375
24.02750015258789
24.27750015258789
24.625
25.262500762939453
25.0575008392334
24.69499969482422
24.9424991607666
25.110000610351562
24.799999237060547
24.717500686645508
24.352500915527344
24.59000015258789
25.420000076293945
25.052499771118164
24.950000762939453
25.0
25.21500015258789
25.522499084472656
25.575000762939453
25.627500534057617
24.707500457763672
24.31999969482422
24.61750030517578
24.709999084472656
24.329999923706055
24.677499771118164
25.282499313354492
25.6924991607666
25.707500457763672
24.8700008392334
24.850000381469727
25.477500915527344
25.6924991607666
25.81999969482422
25.825000762939453
25.799999237060547
25.787500381469727
25.497499465942383
25.0575008392334
24.69499969482422
24.274999618530273
24.982500076293945
25.337499618530273
25.4325008392334
25.337499618530273
25.270000457763672
24.542499542236328
24.587499618530273
24.74250030517578
25.219999313354492
25.31999969482422
24.782499313354492
24.9375
24.905000686645508
24.99250030517578
25.18000030517578
24.954999923706055
25.09000015258789
25.19499969482422
24.9424991607666
24.897499084472656
24.4325008392334
24.502500534057617
24.7450008392334
24.1825008392334
24.4950008392334
25.1924991607666
25.0575008392334
24.447500228881836
24.922500610351562
25.190000534057617
24.922500610351562
25.094999313354492
25.69499969482422
25.522499084472656
25.27750015258789
24.957500457763672
24.84749984741211
24.602500915527344
24.977500915527344
24.857500076293945
25.184999465942383
24.774999618530273
25.084999084472656
25.03499984741211
24.702499389648438
24.712499618530273
24.387500762939453
24.405000686645508
25.107500076293945
24.63249969482422
24.31999969482422
24.732500076293945
24.782499313354492
24.905000686645508
24.897499084472656
24.957500457763672
25.0575008392334
24.292499542236328
24.950000762939453
25.037500381469727
25.207500457763672
25.280000686645508
25.489999771118164
25.232500076293945
24.97249984741211
25.177499771118164
25.0
24.8700008392334
25.094999313354492
25.135000228881836
24.997499465942383
25.037500381469727
24.985000610351562
24.797500610351562
24.264999389648438
24.4424991607666
24.514999389648438
25.075000762939453
25.315000534057617
25.107500076293945
24.877500534057617
24.917499542236328
24.897499084472656
24.827499389648438
24.377500534057617
24.875
25.0575008392334
24.395000457763672
24.549999237060547
25.092500686645508
25.03499984741211
24.877500534057617
25.272499084472656
24.78499984741211
24.342500686645508
24.102500915527344
24.34000015258789
24.334999084472656
24.59749984741211
23.997499465942383
24.077499389648438
24.395000457763672
25.309999465942383
24.850000381469727
24.982500076293945
25.21500015258789
25.094999313354492
24.88249969482422
25.059999465942383
25.309999465942383
25.497499465942383
25.38249969482422
25.139999389648438
24.737499237060547
24.489999771118164
24.497499465942383
24.600000381469727
24.707500457763672
25.024999618530273
25.3125
25.1299991607666
24.752500534057617
24.872499465942383
24.762500762939453
24.235000610351562
24.31999969482422
24.56999969482422
24.977500915527344
25.042499542236328
25.299999237060547
25.459999084472656
25.704999923706055
25.862499237060547
25.517499923706055
25.542499542236328
25.315000534057617
24.71500015258789
24.610000610351562
24.782499313354492
24.872499465942383
24.649999618530273
24.8125
24.647499084472656
24.832500457763672
25.165000915527344
25.482500076293945
25.482500076293945
24.959999084472656
24.852500915527344
25.232500076293945
24.927499771118164
25.517499923706055
25.4424991607666
25.510000228881836
25.142499923706055
24.927499771118164
24.662500381469727
24.00749969482422
24.792499542236328
24.577499389648438
24.827499389648438
24.684999465942383
24.607500076293945
25.137500762939453
25.735000610351562
25.502500534057617
25.1825008392334
25.657499313354492
25.0674991607666
25.295000076293945
25.142499923706055
25.147499084472656
25.139999389648438
25.079999923706055
25.202499389648438
25.447500228881836
25.582500457763672
25.592500686645508
24.967500686645508
24.24250030517578
23.434999465942383
22.80500030517578
22.764999389648438
23.040000915527344
23.545000076293945
24.177499771118164
23.887500762939453
23.895000457763672
23.302499771118164
23.542499542236328
23.665000915527344
23.389999389648438
23.997499465942383
24.177499771118164
24.047500610351562
23.782499313354492
23.979999542236328
24.407499313354492
24.547500610351562
24.895000457763672
24.405000686645508
24.327499389648438
24.815000534057617
24.6924991607666
24.1924991607666
24.225000381469727
24.4325008392334
24.915000915527344
24.645000457763672
25.032499313354492
25.260000228881836
25.052499771118164
25.137500762939453
25.4325008392334
25.28499984741211
25.082500457763672
24.642499923706055
24.86750030517578
24.549999237060547
24.9325008392334
24.84000015258789
25.292499542236328
25.447500228881836
25.25749969482422
25.389999389648438
25.237499237060547
24.80500030517578
24.997499465942383
25.19499969482422
25.517499923706055
25.4375
25.282499313354492
25.397499084472656
25.3700008392334
24.862499237060547
25.065000534057617
25.457500457763672
25.0674991607666
24.860000610351562
24.887500762939453
25.372499465942383
25.532499313354492
25.90250015258789
25.790000915527344
25.447500228881836
25.155000686645508
25.1299991607666
24.959999084472656
24.985000610351562
25.329999923706055
25.497499465942383
25.082500457763672
24.6200008392334
25.174999237060547
25.077499389648438
24.967500686645508
24.872499465942383
25.302499771118164
25.4325008392334
25.635000228881836
25.19499969482422
24.530000686645508
25.0674991607666
25.309999465942383
25.0674991607666
24.8174991607666
25.172500610351562
25.524999618530273
25.427499771118164
25.422500610351562
25.65250015258789
24.594999313354492
24.5049991607666
24.747499465942383
25.7549991607666
25.56999969482422
25.247499465942383
24.655000686645508
25.022499084472656
25.184999465942383
25.462499618530273
25.325000762939453
25.165000915527344
25.155000686645508
25.360000610351562
25.25749969482422
24.75
24.967500686645508
25.174999237060547
25.217500686645508
25.114999771118164
24.852500915527344
24.684999465942383
25.270000457763672
25.700000762939453
25.667499542236328
