EpRewMean
1.063829779624939
1.6443514823913574
1.8496932983398438
1.965000033378601
1.8899999856948853
1.4149999618530273
1.690000057220459
1.8574999570846558
1.7000000476837158
1.7000000476837158
2.0399999618530273
2.297499895095825
2.115000009536743
2.0899999141693115
2.2125000953674316
1.9049999713897705
1.715000033378601
1.774999976158142
1.9075000286102295
1.940000057220459
2.2225000858306885
1.965000033378601
2.1449999809265137
2.3450000286102295
2.0225000381469727
1.9450000524520874
2.137500047683716
2.1524999141693115
1.837499976158142
2.005000114440918
2.072499990463257
1.9325000047683716
2.075000047683716
2.507499933242798
2.1575000286102295
1.875
1.8075000047683716
1.9900000095367432
1.7975000143051147
1.6475000381469727
1.9900000095367432
2.3575000762939453
2.549999952316284
2.747499942779541
2.432499885559082
2.065000057220459
2.007499933242798
2.049999952316284
2.1075000762939453
2.007499933242798
2.4149999618530273
2.5
2.315000057220459
2.172499895095825
1.965000033378601
2.4574999809265137
2.700000047683716
2.575000047683716
2.700000047683716
2.424999952316284
2.5824999809265137
2.5325000286102295
2.575000047683716
2.4749999046325684
2.549999952316284
2.424999952316284
2.700000047683716
2.5999999046325684
2.5
2.7750000953674316
2.6500000953674316
2.375
2.450000047683716
2.6500000953674316
2.7074999809265137
2.6075000762939453
2.7074999809265137
3.265000104904175
2.807499885559082
2.75
3.3324999809265137
3.1575000286102295
3.125
3.132499933242798
2.6500000953674316
2.2249999046325684
3.1075000762939453
3.0999999046325684
2.7750000953674316
2.7325000762939453
2.700000047683716
2.450000047683716
2.7074999809265137
3.140000104904175
2.75
3.307499885559082
2.8575000762939453
2.825000047683716
3.257499933242798
3.3475000858306885
3.1649999618530273
3.182499885559082
3.0325000286102295
3.075000047683716
3.2249999046325684
3.700000047683716
3.7325000762939453
3.6649999618530273
3.1075000762939453
3.4149999618530273
3.75
3.307499885559082
3.4075000286102295
3.7249999046325684
3.765000104904175
3.3499999046325684
3.5999999046325684
3.200000047683716
3.555000066757202
3.299999952316284
3.557499885559082
3.515000104904175
3.0325000286102295
3.682499885559082
3.307499885559082
3.4000000953674316
3.799999952316284
3.075000047683716
2.932499885559082
3.0250000953674316
3.5824999809265137
2.872499942779541
3.4825000762939453
3.7074999809265137
3.765000104904175
3.7249999046325684
3.4574999809265137
3.307499885559082
3.174999952316284
3.9574999809265137
3.432499885559082
3.325000047683716
3.5824999809265137
3.375
3.240000009536743
3.1075000762939453
3.2825000286102295
3.700000047683716
3.450000047683716
3.700000047683716
4.175000190734863
3.9000000953674316
3.799999952316284
3.7750000953674316
3.799999952316284
3.424999952316284
3.6575000286102295
4.574999809265137
3.875
3.6500000953674316
3.9000000953674316
3.5999999046325684
3.7750000953674316
4.074999809265137
3.575000047683716
3.515000104904175
4.257500171661377
3.872499942779541
3.9049999713897705
3.7325000762939453
3.825000047683716
3.9749999046325684
3.9075000286102295
4.0
3.932499885559082
4.289999961853027
3.9149999618530273
3.7225000858306885
3.9700000286102295
3.762500047683716
4.139999866485596
4.034999847412109
4.09499979019165
3.9600000381469727
3.8475000858306885
3.990000009536743
4.1875
4.297500133514404
3.9725000858306885
3.7899999618530273
4.210000038146973
3.827500104904175
3.9774999618530273
4.59250020980835
4.315000057220459
3.825000047683716
4.15500020980835
4.397500038146973
4.172500133514404
4.025000095367432
3.997499942779541
4.082499980926514
4.429999828338623
4.497499942779541
4.429999828338623
4.434999942779541
4.0625
4.347499847412109
4.284999847412109
4.425000190734863
4.175000190734863
3.932499885559082
4.46750020980835
4.300000190734863
4.53000020980835
4.074999809265137
4.46999979019165
4.675000190734863
4.677499771118164
4.449999809265137
4.744999885559082
4.585000038146973
4.867499828338623
4.869999885559082
4.965000152587891
4.614999771118164
4.737500190734863
4.452499866485596
4.474999904632568
4.804999828338623
4.987500190734863
4.869999885559082
4.767499923706055
4.927499771118164
5.170000076293945
4.802499771118164
4.542500019073486
4.554999828338623
4.925000190734863
4.940000057220459
4.587500095367432
4.992499828338623
4.882500171661377
4.552499771118164
4.457499980926514
5.177499771118164
5.179999828338623
5.622499942779541
5.130000114440918
4.962500095367432
5.1875
5.077499866485596
4.974999904632568
5.047500133514404
4.902500152587891
5.275000095367432
5.277500152587891
5.25
5.039999961853027
5.114999771118164
5.369999885559082
5.139999866485596
5.110000133514404
5.327499866485596
5.400000095367432
5.597499847412109
5.727499961853027
5.364999771118164
5.207499980926514
5.269999980926514
5.775000095367432
6.077499866485596
5.934999942779541
5.792500019073486
5.507500171661377
5.207499980926514
6.275000095367432
6.065000057220459
5.59250020980835
5.787499904632568
5.552499771118164
5.715000152587891
6.462500095367432
5.862500190734863
5.505000114440918
5.989999771118164
5.565000057220459
5.672500133514404
5.815000057220459
5.824999809265137
5.400000095367432
5.670000076293945
6.432499885559082
6.150000095367432
6.397500038146973
6.182499885559082
6.142499923706055
6.465000152587891
6.744999885559082
6.327499866485596
6.114999771118164
6.119999885559082
6.21750020980835
6.587500095367432
6.215000152587891
6.329999923706055
6.487500190734863
6.267499923706055
6.59499979019165
6.6875
6.677499771118164
6.829999923706055
6.507500171661377
6.275000095367432
6.385000228881836
6.697500228881836
6.679999828338623
6.565000057220459
6.71999979019165
7.252500057220459
6.8125
6.795000076293945
7.167500019073486
6.909999847412109
6.724999904632568
7.002500057220459
6.912499904632568
6.887499809265137
7.099999904632568
7.152500152587891
7.322500228881836
7.212500095367432
6.960000038146973
7.147500038146973
7.309999942779541
7.40500020980835
7.204999923706055
7.007500171661377
7.327499866485596
7.667500019073486
7.057499885559082
7.034999847412109
7.46999979019165
7.472499847412109
7.360000133514404
7.232500076293945
7.15500020980835
7.590000152587891
7.514999866485596
7.632500171661377
7.264999866485596
7.392499923706055
7.997499942779541
7.577499866485596
7.369999885559082
7.352499961853027
7.452499866485596
7.545000076293945
7.21999979019165
6.652500152587891
6.534999847412109
7.135000228881836
7.5
7.855000019073486
7.957499980926514
8.007499694824219
7.84499979019165
7.579999923706055
7.692500114440918
8.022500038146973
7.804999828338623
7.375
7.065000057220459
7.09250020980835
7.420000076293945
7.772500038146973
8.157500267028809
7.837500095367432
7.422500133514404
7.409999847412109
7.550000190734863
7.542500019073486
7.599999904632568
7.772500038146973
7.602499961853027
7.662499904632568
7.542500019073486
7.445000171661377
7.492499828338623
7.40500020980835
7.572500228881836
7.837500095367432
7.860000133514404
7.992499828338623
8.039999961853027
7.792500019073486
7.887499809265137
7.797500133514404
7.852499961853027
7.784999847412109
7.994999885559082
8.050000190734863
7.922500133514404
7.630000114440918
7.637499809265137
8.319999694824219
8.262499809265137
7.684999942779541
7.65749979019165
7.664999961853027
7.900000095367432
8.225000381469727
7.664999961853027
7.84499979019165
8.267499923706055
8.2475004196167
8.25
8.297499656677246
7.957499980926514
7.692500114440918
7.860000133514404
8.15999984741211
7.914999961853027
8.119999885559082
8.192500114440918
8.449999809265137
8.102499961853027
8.085000038146973
8.515000343322754
8.399999618530273
8.182499885559082
7.902500152587891
8.21500015258789
8.2475004196167
8.34000015258789
8.279999732971191
8.40250015258789
8.427499771118164
8.399999618530273
8.369999885559082
8.27750015258789
8.5649995803833
8.8725004196167
9.03499984741211
8.432499885559082
8.520000457763672
8.587499618530273
8.779999732971191
8.295000076293945
8.539999961853027
8.979999542236328
8.507499694824219
8.572500228881836
8.522500038146973
8.302499771118164
8.515000343322754
8.7524995803833
8.522500038146973
8.967499732971191
9.2524995803833
8.842499732971191
8.630000114440918
8.5024995803833
8.577500343322754
8.327500343322754
8.380000114440918
8.862500190734863
8.760000228881836
8.649999618530273
8.362500190734863
8.6899995803833
8.617500305175781
8.765000343322754
9.274999618530273
8.635000228881836
8.387499809265137
8.702500343322754
8.912500381469727
8.640000343322754
8.787500381469727
8.807499885559082
8.77750015258789
8.454999923706055
8.7475004196167
8.800000190734863
8.807499885559082
8.927499771118164
8.6225004196167
8.762499809265137
9.117500305175781
8.630000114440918
8.515000343322754
8.897500038146973
8.947500228881836
9.045000076293945
8.895000457763672
9.210000038146973
9.3774995803833
8.617500305175781
8.640000343322754
8.822500228881836
9.047499656677246
9.395000457763672
9.104999542236328
9.154999732971191
9.232500076293945
9.029999732971191
9.212499618530273
9.005000114440918
8.890000343322754
9.630000114440918
9.4375
9.1899995803833
9.102499961853027
9.3774995803833
9.220000267028809
9.09749984741211
9.047499656677246
9.432499885559082
9.430000305175781
9.037500381469727
9.057499885559082
9.289999961853027
9.364999771118164
9.587499618530273
9.369999885559082
9.672499656677246
9.795000076293945
9.704999923706055
9.774999618530273
9.199999809265137
9.0625
9.225000381469727
9.53499984741211
9.645000457763672
9.802499771118164
9.512499809265137
9.352499961853027
9.172499656677246
9.007499694824219
9.414999961853027
9.175000190734863
9.119999885559082
9.2524995803833
8.52750015258789
9.21500015258789
9.397500038146973
9.317500114440918
8.895000457763672
9.609999656677246
9.645000457763672
9.699999809265137
9.170000076293945
9.130000114440918
9.327500343322754
9.210000038146973
9.492500305175781
9.72249984741211
9.532500267028809
9.552499771118164
9.6850004196167
9.167499542236328
9.442500114440918
9.25
9.342499732971191
9.942500114440918
9.327500343322754
9.6875
9.604999542236328
9.237500190734863
9.177499771118164
9.417499542236328
9.729999542236328
9.382499694824219
9.462499618530273
9.704999923706055
9.612500190734863
9.614999771118164
9.739999771118164
10.135000228881836
10.107500076293945
9.8125
9.802499771118164
10.0649995803833
9.927499771118164
9.532500267028809
9.677499771118164
9.4375
9.6225004196167
9.587499618530273
9.4350004196167
9.672499656677246
9.6899995803833
9.510000228881836
9.65999984741211
9.8125
9.59000015258789
10.34749984741211
10.130000114440918
9.574999809265137
9.944999694824219
9.717499732971191
9.40999984741211
9.90999984741211
10.157500267028809
9.975000381469727
9.927499771118164
10.037500381469727
9.782500267028809
9.595000267028809
9.53499984741211
9.942500114440918
9.382499694824219
9.489999771118164
10.069999694824219
9.880000114440918
9.53499984741211
9.350000381469727
9.289999961853027
9.3100004196167
9.270000457763672
9.795000076293945
10.037500381469727
10.007499694824219
9.850000381469727
9.582500457763672
9.517499923706055
9.84000015258789
9.927499771118164
9.854999542236328
10.147500038146973
9.729999542236328
9.72249984741211
10.1850004196167
10.204999923706055
10.520000457763672
10.362500190734863
9.949999809265137
9.949999809265137
10.3149995803833
10.1875
9.762499809265137
9.757499694824219
10.067500114440918
9.654999732971191
9.567500114440918
9.967499732971191
9.637499809265137
10.037500381469727
10.3100004196167
10.295000076293945
9.614999771118164
9.8125
10.0649995803833
10.177499771118164
9.7475004196167
10.15250015258789
10.202500343322754
9.680000305175781
9.729999542236328
10.050000190734863
10.095000267028809
10.282500267028809
9.899999618530273
10.085000038146973
9.895000457763672
9.789999961853027
10.1225004196167
10.257499694824219
10.09749984741211
9.97249984741211
9.59000015258789
10.422499656677246
10.619999885559082
10.3774995803833
10.017499923706055
9.960000038146973
9.835000038146973
10.167499542236328
10.272500038146973
10.5
10.680000305175781
10.15250015258789
9.887499809265137
9.8774995803833
10.0
10.125
10.452500343322754
10.487500190734863
10.162500381469727
10.100000381469727
10.3774995803833
10.567500114440918
10.229999542236328
9.987500190734863
9.979999542236328
10.1899995803833
10.547499656677246
10.550000190734863
10.119999885559082
10.057499885559082
10.177499771118164
10.207500457763672
10.420000076293945
10.460000038146973
10.392499923706055
10.654999732971191
10.029999732971191
10.197500228881836
10.175000190734863
10.1274995803833
10.037500381469727
10.024999618530273
10.045000076293945
9.864999771118164
10.302499771118164
10.305000305175781
10.037500381469727
9.954999923706055
10.029999732971191
10.282500267028809
10.53499984741211
10.539999961853027
10.137499809265137
10.295000076293945
10.604999542236328
10.267499923706055
10.432499885559082
10.3149995803833
10.162500381469727
10.359999656677246
10.489999771118164
10.707500457763672
10.015000343322754
9.9399995803833
10.154999732971191
10.392499923706055
10.177499771118164
10.432499885559082
10.6274995803833
10.397500038146973
10.487500190734863
10.40250015258789
10.232500076293945
10.7524995803833
10.574999809265137
10.697500228881836
10.457500457763672
10.047499656677246
10.1850004196167
10.727499961853027
10.607500076293945
10.382499694824219
10.479999542236328
10.614999771118164
10.697500228881836
10.582500457763672
10.180000305175781
10.430000305175781
10.862500190734863
10.592499732971191
10.229999542236328
10.632499694824219
10.352499961853027
10.114999771118164
10.4399995803833
10.387499809265137
10.567500114440918
10.625
10.305000305175781
10.482500076293945
10.869999885559082
10.282500267028809
10.34000015258789
10.2475004196167
10.484999656677246
10.289999961853027
10.515000343322754
10.412500381469727
10.640000343322754
10.782500267028809
10.227499961853027
10.454999923706055
10.524999618530273
10.387499809265137
10.305000305175781
9.84000015258789
10.199999809265137
10.202500343322754
10.182499885559082
10.3125
10.194999694824219
10.557499885559082
10.385000228881836
10.645000457763672
10.4375
10.202500343322754
10.1899995803833
10.270000457763672
10.1225004196167
10.25
10.145000457763672
10.512499809265137
10.387499809265137
10.287500381469727
10.484999656677246
10.859999656677246
10.319999694824219
10.317500114440918
10.327500343322754
9.880000114440918
10.142499923706055
10.227499961853027
10.34000015258789
10.479999542236328
10.53499984741211
10.082500457763672
10.417499542236328
10.012499809265137
10.15250015258789
10.904999732971191
11.0625
10.6899995803833
10.40250015258789
10.210000038146973
10.262499809265137
10.197500228881836
10.65250015258789
10.517499923706055
10.609999656677246
10.4350004196167
10.550000190734863
11.0649995803833
10.7475004196167
10.1899995803833
9.664999961853027
10.162500381469727
10.72249984741211
10.484999656677246
10.4975004196167
10.619999885559082
10.207500457763672
10.47249984741211
10.385000228881836
10.425000190734863
10.512499809265137
10.4399995803833
10.385000228881836
10.270000457763672
10.787500381469727
10.414999961853027
10.017499923706055
10.204999923706055
10.430000305175781
10.6225004196167
10.484999656677246
10.332500457763672
10.137499809265137
10.510000228881836
11.039999961853027
10.694999694824219
10.667499542236328
10.46500015258789
10.694999694824219
10.805000305175781
10.632499694824219
10.792499542236328
10.710000038146973
10.607500076293945
10.762499809265137
10.657500267028809
10.975000381469727
10.71500015258789
10.40999984741211
10.300000190734863
10.852499961853027
10.755000114440918
10.832500457763672
10.837499618530273
10.557499885559082
10.595000267028809
10.3149995803833
10.454999923706055
10.100000381469727
10.244999885559082
10.420000076293945
10.462499618530273
10.65999984741211
10.6850004196167
10.522500038146973
10.922499656677246
10.274999618530273
10.567500114440918
10.612500190734863
10.520000457763672
10.625
10.3774995803833
10.397500038146973
10.642499923706055
10.6225004196167
10.307499885559082
10.404999732971191
11.170000076293945
10.392499923706055
10.84000015258789
10.5
10.512499809265137
10.470000267028809
10.882499694824219
10.920000076293945
10.994999885559082
10.710000038146973
10.72249984741211
10.697500228881836
10.77750015258789
10.387499809265137
10.412500381469727
10.5024995803833
10.545000076293945
10.227499961853027
10.65250015258789
10.842499732971191
10.800000190734863
10.579999923706055
10.489999771118164
10.7475004196167
10.587499618530273
10.654999732971191
10.550000190734863
10.6875
10.640000343322754
10.574999809265137
10.460000038146973
10.5625
10.770000457763672
10.914999961853027
10.789999961853027
10.824999809265137
10.845000267028809
10.422499656677246
11.095000267028809
10.6225004196167
10.345000267028809
10.600000381469727
10.5600004196167
10.40250015258789
10.694999694824219
11.055000305175781
10.800000190734863
10.805000305175781
10.737500190734863
10.824999809265137
10.957500457763672
10.892499923706055
10.720000267028809
11.212499618530273
10.989999771118164
10.512499809265137
10.670000076293945
10.899999618530273
10.802499771118164
11.03499984741211
10.729999542236328
10.630000114440918
10.567500114440918
10.767499923706055
10.662500381469727
10.65999984741211
11.045000076293945
10.039999961853027
11.010000228881836
10.957500457763672
10.832500457763672
11.117500305175781
10.957500457763672
10.649999618530273
10.595000267028809
10.432499885559082
11.09000015258789
11.039999961853027
11.145000457763672
10.962499618530273
10.675000190734863
10.90999984741211
11.107500076293945
11.354999542236328
10.989999771118164
10.467499732971191
10.46500015258789
10.805000305175781
10.789999961853027
10.767499923706055
11.005000114440918
10.602499961853027
10.994999885559082
10.835000038146973
10.645000457763672
10.757499694824219
11.145000457763672
11.107500076293945
11.015000343322754
10.767499923706055
11.104999542236328
10.989999771118164
11.307499885559082
11.012499809265137
11.162500381469727
10.90999984741211
10.824999809265137
10.979999542236328
10.649999618530273
11.0024995803833
11.074999809265137
11.137499809265137
10.84749984741211
10.9350004196167
11.140000343322754
10.704999923706055
10.854999542236328
10.8100004196167
11.112500190734863
10.574999809265137
10.782500267028809
10.962499618530273
10.802499771118164
10.827500343322754
10.989999771118164
11.03499984741211
11.092499732971191
10.5600004196167
10.65250015258789
10.694999694824219
10.922499656677246
10.97249984741211
11.069999694824219
11.345000267028809
10.907500267028809
10.975000381469727
11.194999694824219
11.162500381469727
11.335000038146973
10.859999656677246
11.162500381469727
10.90999984741211
11.047499656677246
10.779999732971191
10.537500381469727
10.8774995803833
10.867500305175781
10.6850004196167
11.1899995803833
10.942500114440918
11.279999732971191
11.045000076293945
11.119999885559082
11.517499923706055
10.975000381469727
10.617500305175781
10.524999618530273
10.542499542236328
10.395000457763672
11.194999694824219
10.982500076293945
10.529999732971191
11.0625
11.079999923706055
10.454999923706055
10.524999618530273
10.920000076293945
11.077500343322754
10.932499885559082
10.720000267028809
10.957500457763672
10.954999923706055
10.977499961853027
11.069999694824219
10.7475004196167
10.8125
10.832500457763672
10.805000305175781
10.984999656677246
10.854999542236328
11.104999542236328
11.055000305175781
10.670000076293945
11.114999771118164
11.107500076293945
11.52750015258789
11.010000228881836
11.020000457763672
11.162500381469727
11.34749984741211
11.125
10.805000305175781
11.192500114440918
11.180000305175781
11.204999923706055
11.03499984741211
11.5649995803833
11.079999923706055
11.140000343322754
10.8725004196167
11.5
11.25
11.180000305175781
11.074999809265137
11.15999984741211
11.524999618530273
11.232500076293945
11.039999961853027
10.852499961853027
11.1899995803833
11.100000381469727
11.117500305175781
11.28499984741211
11.005000114440918
10.992500305175781
11.3725004196167
11.477499961853027
11.369999885559082
10.982500076293945
11.192500114440918
11.454999923706055
11.102499961853027
10.8125
11.104999542236328
11.0649995803833
11.25
10.907500267028809
11.085000038146973
11.244999885559082
11.22249984741211
11.074999809265137
11.164999961853027
11.085000038146973
10.890000343322754
10.630000114440918
10.90250015258789
11.482500076293945
11.672499656677246
11.047499656677246
11.017499923706055
11.199999809265137
10.992500305175781
10.8774995803833
11.197500228881836
11.072500228881836
11.362500190734863
10.739999771118164
10.65250015258789
10.515000343322754
11.012499809265137
10.914999961853027
11.095000267028809
11.087499618530273
11.042499542236328
11.085000038146973
11.09000015258789
11.119999885559082
11.140000343322754
11.202500343322754
11.262499809265137
11.3100004196167
11.362500190734863
11.295000076293945
11.432499885559082
11.012499809265137
11.09749984741211
11.069999694824219
11.042499542236328
11.390000343322754
11.5
11.180000305175781
10.864999771118164
11.444999694824219
11.332500457763672
11.079999923706055
11.350000381469727
11.457500457763672
11.449999809265137
11.237500190734863
11.385000228881836
11.319999694824219
10.957500457763672
11.157500267028809
11.267499923706055
11.225000381469727
11.095000267028809
11.145000457763672
11.045000076293945
11.007499694824219
10.5625
10.712499618530273
11.3725004196167
11.109999656677246
11.024999618530273
11.2475004196167
11.207500457763672
11.147500038146973
10.90999984741211
11.484999656677246
11.0649995803833
10.657500267028809
11.005000114440918
10.922499656677246
10.954999923706055
11.102499961853027
11.157500267028809
11.117500305175781
11.167499542236328
10.664999961853027
11.227499961853027
11.289999961853027
11.720000267028809
11.010000228881836
10.984999656677246
10.967499732971191
10.800000190734863
10.932499885559082
10.944999694824219
11.2475004196167
10.895000457763672
10.587499618530273
10.797499656677246
10.954999923706055
10.77750015258789
11.244999885559082
11.104999542236328
10.77750015258789
10.850000381469727
10.595000267028809
10.7524995803833
11.332500457763672
10.967499732971191
11.067500114440918
11.145000457763672
11.092499732971191
11.114999771118164
11.412500381469727
11.045000076293945
11.297499656677246
11.289999961853027
10.987500190734863
11.317500114440918
10.792499542236328
10.737500190734863
10.71500015258789
10.979999542236328
11.5024995803833
11.197500228881836
11.0649995803833
10.914999961853027
10.774999618530273
11.380000114440918
11.28499984741211
10.9350004196167
11.154999732971191
11.227499961853027
11.262499809265137
11.095000267028809
11.297499656677246
10.932499885559082
11.107500076293945
10.952500343322754
11.192500114440918
11.260000228881836
10.975000381469727
11.109999656677246
11.204999923706055
11.5649995803833
11.234999656677246
11.079999923706055
10.664999961853027
11.074999809265137
11.282500267028809
11.40999984741211
10.975000381469727
11.399999618530273
11.220000267028809
11.0649995803833
11.1875
11.010000228881836
11.432499885559082
11.1274995803833
10.864999771118164
10.84000015258789
11.135000228881836
11.170000076293945
11.3149995803833
10.77750015258789
10.832500457763672
11.172499656677246
11.09749984741211
11.569999694824219
11.357500076293945
10.925000190734863
10.732500076293945
10.782500267028809
10.954999923706055
10.897500038146973
11.0625
11.267499923706055
11.095000267028809
11.164999961853027
11.287500381469727
11.255000114440918
11.149999618530273
11.172499656677246
11.354999542236328
11.175000190734863
11.442500114440918
11.430000305175781
11.042499542236328
10.857500076293945
10.577500343322754
10.782500267028809
10.8774995803833
10.647500038146973
11.170000076293945
11.387499809265137
11.84749984741211
11.329999923706055
11.362500190734863
11.279999732971191
11.317500114440918
10.84000015258789
11.677499771118164
11.069999694824219
11.199999809265137
11.414999961853027
11.484999656677246
10.9375
11.024999618530273
11.414999961853027
11.327500343322754
11.09000015258789
11.082500457763672
11.59000015258789
11.34000015258789
10.774999618530273
11.21500015258789
11.319999694824219
11.3125
10.977499961853027
10.897500038146973
11.270000457763672
11.095000267028809
11.145000457763672
11.2524995803833
11.359999656677246
11.170000076293945
11.067500114440918
10.975000381469727
11.487500190734863
11.475000381469727
11.1274995803833
11.332500457763672
11.40250015258789
11.6225004196167
11.052499771118164
11.045000076293945
10.707500457763672
10.979999542236328
11.220000267028809
10.90999984741211
11.397500038146973
11.487500190734863
11.232500076293945
11.595000267028809
11.199999809265137
11.317500114440918
11.015000343322754
11.454999923706055
11.555000305175781
11.664999961853027
11.302499771118164
10.9399995803833
10.917499542236328
10.989999771118164
11.354999542236328
11.192500114440918
10.859999656677246
11.292499542236328
11.432499885559082
11.295000076293945
11.385000228881836
11.262499809265137
10.9399995803833
10.682499885559082
11.042499542236328
11.220000267028809
10.979999542236328
10.760000228881836
11.192500114440918
11.225000381469727
11.072500228881836
11.220000267028809
10.862500190734863
11.117500305175781
11.257499694824219
10.927499771118164
11.342499732971191
11.422499656677246
11.005000114440918
11.28499984741211
11.227499961853027
11.1875
11.180000305175781
11.479999542236328
11.390000343322754
11.395000457763672
11.192500114440918
11.282500267028809
11.295000076293945
11.3100004196167
11.322500228881836
11.5600004196167
11.395000457763672
11.079999923706055
11.272500038146973
11.147500038146973
11.369999885559082
10.982500076293945
11.234999656677246
11.507499694824219
11.457500457763672
11.640000343322754
11.137499809265137
11.265000343322754
11.335000038146973
11.5625
11.432499885559082
11.454999923706055
11.267499923706055
11.09749984741211
11.359999656677246
10.967499732971191
11.354999542236328
11.164999961853027
11.104999542236328
11.145000457763672
10.572500228881836
10.922499656677246
11.032500267028809
11.037500381469727
11.404999732971191
11.107500076293945
11.380000114440918
11.267499923706055
11.569999694824219
11.642499923706055
11.102499961853027
11.354999542236328
11.7475004196167
11.515000343322754
11.609999656677246
11.680000305175781
11.582500457763672
11.342499732971191
11.420000076293945
11.617500305175781
11.6225004196167
11.132499694824219
11.327500343322754
10.987500190734863
11.375
11.399999618530273
11.045000076293945
11.114999771118164
11.40999984741211
11.492500305175781
11.109999656677246
10.952500343322754
10.739999771118164
11.354999542236328
11.077500343322754
11.467499732971191
10.977499961853027
11.182499885559082
11.305000305175781
10.90250015258789
11.289999961853027
11.149999618530273
11.042499542236328
11.147500038146973
11.21500015258789
11.332500457763672
11.397500038146973
11.332500457763672
11.140000343322754
10.864999771118164
11.172499656677246
11.229999542236328
10.869999885559082
11.359999656677246
11.664999961853027
11.117500305175781
11.265000343322754
10.892499923706055
11.25
11.289999961853027
11.3125
10.837499618530273
11.292499542236328
11.042499542236328
10.817500114440918
11.050000190734863
11.0
11.467499732971191
11.177499771118164
11.069999694824219
11.104999542236328
11.119999885559082
11.132499694824219
11.414999961853027
11.3774995803833
11.414999961853027
11.417499542236328
11.547499656677246
11.6899995803833
11.460000038146973
11.170000076293945
10.987500190734863
11.772500038146973
11.395000457763672
11.707500457763672
