EpRewMean
0.6202999949455261
0.6146000027656555
0.6573999524116516
0.6344999670982361
0.6538000702857971
0.6444999575614929
0.6433999538421631
0.6629000306129456
0.6439999341964722
0.6772000193595886
0.6536999344825745
0.6597999334335327
0.640999972820282
0.6672000288963318
0.671999990940094
0.6524999737739563
0.6816999912261963
0.6792999505996704
0.6895999312400818
0.6786999702453613
0.646899938583374
0.6598999500274658
0.6711000204086304
0.655500054359436
0.6824999451637268
0.6672999858856201
0.6624000072479248
0.7187999486923218
0.6954999566078186
0.7184998989105225
0.7471999526023865
0.7550999522209167
0.7468998432159424
0.8198999166488647
0.8181999325752258
0.8307998776435852
0.8368998765945435
0.8974998593330383
0.9577998518943787
0.9983997941017151
1.034099817276001
1.059099793434143
1.0740997791290283
1.1409997940063477
1.124599814414978
1.166699767112732
1.1813998222351074
1.215499758720398
1.2964996099472046
1.299399733543396
1.2931997776031494
1.3884997367858887
1.3695998191833496
1.377199649810791
1.4179996252059937
1.47059965133667
1.5444995164871216
1.581099510192871
1.570899486541748
1.5414994955062866
1.6128994226455688
1.599299669265747
1.7046995162963867
1.6504994630813599
1.63629949092865
1.6620995998382568
1.7292993068695068
1.6621994972229004
1.7181994915008545
1.742199420928955
1.897699236869812
1.859999418258667
1.8069993257522583
1.9202991724014282
1.8748992681503296
1.9072993993759155
1.8808993101119995
1.9965994358062744
1.8996994495391846
1.9881993532180786
2.0381991863250732
2.0156991481781006
1.9682992696762085
2.0545990467071533
2.120199203491211
2.121899127960205
2.1057991981506348
2.1583991050720215
2.1319990158081055
2.0946991443634033
2.1814990043640137
2.1807990074157715
2.2736990451812744
2.20159912109375
2.2776989936828613
2.189899206161499
2.1930992603302
2.106999158859253
2.120399236679077
2.2474989891052246
2.3137991428375244
2.2763991355895996
2.2739992141723633
2.261599063873291
2.3035991191864014
2.2384989261627197
2.273098945617676
2.2791991233825684
2.4055991172790527
2.325798988342285
2.4429988861083984
2.3403990268707275
2.4344987869262695
2.4175989627838135
2.4596986770629883
2.4767987728118896
2.4890990257263184
2.4207990169525146
2.475498914718628
2.4297988414764404
2.4294989109039307
2.473499059677124
2.566398859024048
2.5230987071990967
2.539998769760132
2.559098720550537
2.546199083328247
2.5542986392974854
2.5412988662719727
2.55319881439209
2.5831987857818604
2.544698715209961
2.525798797607422
2.5773987770080566
2.593798875808716
2.526498794555664
2.5407989025115967
2.5268988609313965
2.555398941040039
2.6201987266540527
2.683198928833008
2.6841986179351807
2.5997989177703857
2.6680986881256104
2.750598669052124
2.800898551940918
2.796598434448242
2.7798986434936523
2.8144986629486084
2.866398811340332
2.8368988037109375
2.7867987155914307
2.7960987091064453
2.897298574447632
2.985898494720459
3.090498685836792
3.0330984592437744
2.977198600769043
2.9003984928131104
2.7902984619140625
2.9466986656188965
2.9159984588623047
2.854398727416992
3.1480982303619385
3.07999849319458
3.025498628616333
2.9518988132476807
3.1222984790802
3.1520984172821045
3.068598747253418
3.145698308944702
3.183798313140869
3.2324984073638916
3.2172985076904297
3.300398588180542
3.397198438644409
3.38459849357605
3.3472983837127686
3.4815986156463623
3.316998243331909
3.433298349380493
3.559798240661621
3.4757983684539795
3.4675981998443604
3.498298406600952
3.5056982040405273
3.5841987133026123
3.8007984161376953
3.706998348236084
3.5940980911254883
3.755298137664795
3.8793981075286865
4.014997959136963
3.8074984550476074
3.640998125076294
3.619598388671875
3.644698143005371
3.60739803314209
3.6686980724334717
3.930798292160034
3.8266983032226562
3.6470983028411865
3.648698091506958
3.621798038482666
3.7357983589172363
3.7902982234954834
3.7042980194091797
3.702998399734497
3.895798444747925
4.120298385620117
4.084298133850098
4.036998271942139
4.0016984939575195
4.09099817276001
4.2324981689453125
4.168097972869873
4.114798069000244
4.05219841003418
3.9903979301452637
3.9237983226776123
3.973897933959961
4.038797855377197
4.206298351287842
4.276998519897461
4.334197998046875
4.036698341369629
4.388897895812988
4.539597988128662
4.450697898864746
4.153898239135742
3.9251980781555176
4.118098258972168
4.1584978103637695
4.255598068237305
4.315497875213623
4.337198257446289
4.467698097229004
4.600698471069336
4.558897972106934
4.477197647094727
4.274298191070557
4.2722978591918945
4.19959831237793
4.490298271179199
4.259798049926758
4.361298084259033
4.523397922515869
4.897897720336914
5.095698356628418
5.005397796630859
4.707397937774658
4.674898147583008
4.920698165893555
5.1024980545043945
4.797797679901123
4.837197780609131
5.185297966003418
5.1671977043151855
4.778398036956787
4.728097915649414
4.931297779083252
4.984198093414307
5.10299825668335
5.0795979499816895
4.986298084259033
5.35299825668335
5.60549783706665
5.345197677612305
4.991398334503174
4.854197978973389
4.6413984298706055
4.815598011016846
4.964198112487793
4.945097923278809
4.994197845458984
5.219498157501221
5.457798004150391
5.761797904968262
5.556598663330078
5.325498104095459
5.342897891998291
5.372198104858398
5.623997688293457
5.571598052978516
5.509198188781738
5.664097785949707
5.686298370361328
5.587697982788086
5.514997959136963
5.543798446655273
5.744897842407227
5.616697788238525
5.458198070526123
5.742398262023926
6.117597579956055
5.594398021697998
5.3472981452941895
5.417297840118408
5.66799783706665
5.677797794342041
5.664498329162598
5.757098197937012
6.0225982666015625
5.891998291015625
5.794097900390625
5.659897327423096
5.370398044586182
5.4650983810424805
5.622298717498779
5.320497989654541
5.148498058319092
5.968098163604736
6.401197910308838
5.885998725891113
6.026098251342773
6.011797904968262
5.916297435760498
5.900897979736328
5.840598106384277
6.078298568725586
6.018298149108887
6.014997959136963
6.086297512054443
6.106098651885986
5.520197868347168
5.691898345947266
6.078897476196289
6.216097831726074
6.328997611999512
6.405698299407959
6.216598033905029
6.27659797668457
5.965497970581055
6.044098377227783
6.130598068237305
6.37409782409668
6.665398120880127
6.342498302459717
6.092098236083984
6.595998764038086
6.520498275756836
6.28389835357666
6.337897777557373
6.421197414398193
6.321897983551025
6.438899040222168
6.673497200012207
6.731597900390625
6.914398193359375
6.650798320770264
6.4378981590271
6.249698638916016
6.4221978187561035
6.408697605133057
6.324098110198975
6.3748979568481445
6.2503981590271
6.398598670959473
6.958398342132568
6.835497856140137
7.061697959899902
7.210597991943359
6.844698429107666
6.8778977394104
7.529298305511475
7.5571980476379395
6.755497932434082
6.659898281097412
7.141998291015625
7.254097938537598
7.521897792816162
7.524697780609131
6.969198226928711
7.336398124694824
7.653497695922852
7.530697822570801
7.475197792053223
7.643797397613525
7.4980974197387695
7.543997764587402
7.66889762878418
8.176098823547363
8.407198905944824
8.144997596740723
7.687397480010986
7.696497917175293
8.1556978225708
8.526298522949219
8.37979793548584
8.090097427368164
7.947697639465332
7.674997329711914
8.147897720336914
7.807998180389404
7.817297458648682
8.356297492980957
8.411397933959961
8.373298645019531
8.226298332214355
8.383697509765625
8.396798133850098
8.375898361206055
8.341097831726074
8.079398155212402
7.533697605133057
7.570397853851318
8.341697692871094
8.071398735046387
7.591497898101807
7.694097995758057
8.214498519897461
8.234798431396484
8.087298393249512
8.062697410583496
7.840397834777832
7.670797824859619
7.668598175048828
7.985097885131836
8.598298072814941
8.109097480773926
7.652997970581055
7.552298069000244
7.509298324584961
7.754598617553711
8.074697494506836
8.11939811706543
8.127198219299316
8.15469741821289
7.963997840881348
7.737598419189453
7.7097978591918945
7.894697666168213
8.196497917175293
8.22099781036377
8.257698059082031
8.112797737121582
8.008797645568848
7.570497989654541
7.567197799682617
7.7620978355407715
7.87449836730957
7.941597938537598
7.7409987449646
7.411198139190674
7.680997848510742
7.8484978675842285
7.381197929382324
7.652097702026367
7.829398155212402
7.750998020172119
7.264598369598389
7.118098258972168
7.765798568725586
8.469198226928711
7.858098030090332
7.534898281097412
7.565698146820068
7.793097972869873
7.822598457336426
7.787797927856445
7.980298042297363
7.6689982414245605
7.804998397827148
7.939298152923584
7.637197494506836
7.636297702789307
8.19759750366211
8.3254976272583
8.549997329711914
8.528997421264648
8.585997581481934
8.463698387145996
8.345097541809082
8.139298439025879
7.858397960662842
8.519298553466797
8.49339771270752
8.215597152709961
8.53819751739502
8.351798057556152
8.433597564697266
8.346397399902344
8.154797554016113
8.289298057556152
8.147297859191895
8.037598609924316
8.332898139953613
8.247598648071289
7.786497592926025
8.101397514343262
8.445898056030273
8.609097480773926
8.616097450256348
8.33279800415039
7.9413981437683105
7.880698204040527
8.003098487854004
8.038397789001465
8.319698333740234
7.9351983070373535
7.7306976318359375
7.592198371887207
7.862597465515137
8.227797508239746
7.909798622131348
8.144998550415039
8.375997543334961
8.239297866821289
8.157697677612305
8.324597358703613
8.147597312927246
8.07809829711914
8.107197761535645
7.652398109436035
7.640097618103027
7.592297554016113
7.775197982788086
8.233298301696777
8.272797584533691
8.52089786529541
8.278597831726074
7.99909782409668
8.129398345947266
8.417198181152344
8.320398330688477
7.9889984130859375
7.8726983070373535
7.729298114776611
8.002198219299316
8.206997871398926
7.9886980056762695
7.947197914123535
7.81829833984375
8.309497833251953
8.665597915649414
8.538497924804688
8.295698165893555
8.340197563171387
8.324997901916504
8.444097518920898
8.293298721313477
7.794897556304932
8.045997619628906
8.275097846984863
7.967098236083984
7.4012980461120605
7.233298301696777
7.678198337554932
7.492097854614258
7.833198070526123
7.853397846221924
7.493298530578613
7.558597564697266
7.646697998046875
7.730597972869873
8.151698112487793
8.131797790527344
7.667098522186279
7.404198169708252
7.300997734069824
6.791597843170166
6.901197910308838
7.563498497009277
7.600897789001465
7.690798282623291
7.414097785949707
7.363298416137695
7.830297946929932
7.742897987365723
7.847998142242432
7.838697910308838
7.8275980949401855
7.727397918701172
7.441098690032959
7.555798530578613
7.643298149108887
8.08439826965332
8.182598114013672
8.14019775390625
7.830898284912109
8.248298645019531
8.393797874450684
8.068597793579102
7.799298286437988
8.066998481750488
8.107497215270996
7.80689811706543
7.4249982833862305
7.8873982429504395
8.549897193908691
8.786797523498535
8.489097595214844
8.585197448730469
8.517097473144531
8.498498916625977
8.558998107910156
8.550498008728027
8.043498992919922
8.358798027038574
8.994797706604004
8.871498107910156
8.47609806060791
8.293997764587402
8.643797874450684
8.726397514343262
8.845297813415527
9.006897926330566
8.641397476196289
8.289097785949707
8.622097969055176
8.619297981262207
8.616898536682129
8.525498390197754
8.14219856262207
8.130897521972656
8.257798194885254
7.980898380279541
8.090097427368164
8.366397857666016
8.763998031616211
8.723197937011719
8.757098197937012
8.70839786529541
8.759298324584961
8.732098579406738
8.510598182678223
8.633698463439941
8.545598030090332
8.45519733428955
8.85639762878418
9.172198295593262
8.874597549438477
8.332098007202148
8.505098342895508
8.453797340393066
8.62409782409668
8.72199821472168
8.602897644042969
9.035898208618164
8.604598045349121
8.16579818725586
8.464198112487793
8.847797393798828
8.755597114562988
8.333498001098633
8.967098236083984
8.940498352050781
8.070697784423828
8.214298248291016
8.161698341369629
8.6108980178833
8.865898132324219
8.641998291015625
8.83749771118164
8.747597694396973
8.647197723388672
8.505297660827637
8.46789836883545
8.771099090576172
8.92049789428711
9.06159782409668
9.121498107910156
8.921398162841797
8.583598136901855
8.653597831726074
8.565598487854004
8.692398071289062
8.399097442626953
8.596898078918457
8.641297340393066
8.465998649597168
8.518998146057129
8.526397705078125
8.65279769897461
8.112197875976562
7.883997917175293
8.555798530578613
8.406298637390137
8.14329719543457
8.405498504638672
8.2452974319458
8.098998069763184
8.42989730834961
8.301097869873047
8.62409782409668
8.406397819519043
8.391697883605957
8.262197494506836
7.9572978019714355
7.993997573852539
8.274598121643066
8.370697975158691
8.605097770690918
8.169697761535645
8.124298095703125
8.420197486877441
8.509298324584961
8.526397705078125
8.54079818725586
8.578497886657715
8.671697616577148
8.84289836883545
8.877697944641113
8.679998397827148
8.497498512268066
8.560598373413086
9.038298606872559
9.005297660827637
9.355498313903809
9.544398307800293
8.761098861694336
8.801597595214844
9.171697616577148
8.785597801208496
8.505297660827637
9.03819751739502
9.393697738647461
9.274297714233398
8.733798027038574
8.493298530578613
8.596697807312012
8.994097709655762
8.385197639465332
8.71059799194336
8.848398208618164
8.60619831085205
8.835798263549805
9.08439826965332
9.208396911621094
9.46409797668457
9.516997337341309
9.264998435974121
9.02309799194336
8.833797454833984
8.905998229980469
9.024797439575195
8.774497985839844
8.623897552490234
8.549997329711914
8.515997886657715
8.599198341369629
8.623197555541992
8.981698036193848
8.711997985839844
8.46099853515625
8.593997955322266
8.882498741149902
8.589498519897461
8.490697860717773
8.489498138427734
8.458298683166504
8.969799041748047
9.114197731018066
8.948397636413574
8.943798065185547
8.922698020935059
9.158397674560547
9.008997917175293
8.868997573852539
8.830698013305664
8.906997680664062
9.061297416687012
9.002497673034668
8.997998237609863
9.278697967529297
9.080497741699219
8.669597625732422
9.045397758483887
8.849897384643555
8.42709732055664
8.911498069763184
8.834997177124023
9.189698219299316
9.47189712524414
9.10329818725586
8.426998138427734
8.2496976852417
8.39179801940918
8.382497787475586
8.853898048400879
9.478397369384766
9.17989730834961
8.990398406982422
8.956498146057129
8.697998046875
8.73709774017334
8.916197776794434
8.734097480773926
8.660697937011719
8.543598175048828
8.688597679138184
8.783897399902344
8.84859848022461
9.138897895812988
9.259897232055664
8.792497634887695
8.578397750854492
8.774898529052734
8.833697319030762
9.208498001098633
8.835298538208008
8.127398490905762
8.183697700500488
8.474997520446777
8.201297760009766
8.353397369384766
8.748296737670898
8.82079792022705
9.07239818572998
8.816497802734375
8.74949836730957
9.165698051452637
8.910298347473145
9.288897514343262
9.0798978805542
8.459298133850098
8.248098373413086
8.74339771270752
8.692397117614746
8.818098068237305
9.307097434997559
9.662797927856445
9.065298080444336
8.40539836883545
8.693198204040527
9.009298324584961
9.160998344421387
9.054298400878906
8.883197784423828
9.088397026062012
9.543498039245605
9.129697799682617
8.986997604370117
9.030097961425781
9.130898475646973
9.445298194885254
9.222198486328125
9.3052978515625
9.53979778289795
9.724698066711426
9.101497650146484
8.825597763061523
9.272497177124023
9.359297752380371
8.949597358703613
8.692996978759766
8.656598091125488
8.710997581481934
8.88329792022705
8.678897857666016
8.841497421264648
9.032997131347656
9.253597259521484
9.139398574829102
8.599597930908203
8.736598014831543
9.07969856262207
8.820198059082031
9.063397407531738
8.98809814453125
9.043597221374512
8.992497444152832
9.002198219299316
8.312097549438477
8.312198638916016
8.268298149108887
8.022197723388672
7.989597797393799
7.890297889709473
7.720897674560547
7.689697742462158
7.758398056030273
7.778098106384277
7.553798198699951
7.949398040771484
8.475297927856445
8.386998176574707
8.145498275756836
7.833897590637207
8.353097915649414
8.434898376464844
8.596497535705566
8.723998069763184
8.844597816467285
8.677297592163086
8.57099723815918
8.626797676086426
8.905898094177246
9.115898132324219
9.185098648071289
8.969897270202637
8.848597526550293
8.791498184204102
8.953997611999512
9.106097221374512
9.107297897338867
9.066997528076172
9.045097351074219
8.89649772644043
8.497198104858398
8.627497673034668
8.538497924804688
8.136197090148926
8.356298446655273
8.392098426818848
8.441898345947266
8.876498222351074
9.472497940063477
8.903597831726074
9.227897644042969
9.615097999572754
9.539298057556152
9.235897064208984
9.439598083496094
9.479497909545898
9.645197868347168
9.42989730834961
9.067198753356934
8.856297492980957
8.218097686767578
8.650498390197754
8.92419719696045
8.713997840881348
8.224198341369629
8.283897399902344
8.478397369384766
8.438898086547852
8.708797454833984
8.532797813415527
8.576897621154785
8.547198295593262
8.53719711303711
8.81319808959961
8.817597389221191
9.200997352600098
9.235398292541504
9.128897666931152
9.121197700500488
8.656198501586914
8.649397850036621
8.457998275756836
8.430898666381836
8.397296905517578
8.91259765625
8.992697715759277
8.949297904968262
8.59579849243164
8.521597862243652
8.946698188781738
8.91769790649414
8.857597351074219
8.783598899841309
8.982597351074219
9.152297019958496
8.698797225952148
8.433797836303711
8.531698226928711
8.363397598266602
8.671797752380371
9.06979751586914
9.41869831085205
9.319297790527344
9.013897895812988
9.436898231506348
9.651098251342773
9.09499740600586
9.017498016357422
9.289097785949707
9.247097969055176
9.30469799041748
9.362499237060547
9.695398330688477
9.630496978759766
9.43539810180664
9.262598037719727
9.533397674560547
9.568398475646973
9.462697982788086
9.831197738647461
10.122298240661621
10.047098159790039
9.783997535705566
9.862196922302246
9.593997955322266
9.524697303771973
9.411898612976074
9.173897743225098
9.546697616577148
9.490797996520996
9.399497985839844
9.436497688293457
9.183597564697266
9.122797966003418
9.175397872924805
9.88489818572998
9.507298469543457
9.430397987365723
9.886898040771484
9.772198677062988
9.453497886657715
8.838898658752441
8.878697395324707
9.718997955322266
9.94069766998291
9.960397720336914
9.863297462463379
9.264198303222656
9.795097351074219
10.216597557067871
10.076897621154785
9.3652982711792
9.750797271728516
9.926898002624512
9.686697959899902
9.611397743225098
9.40539836883545
9.252998352050781
9.409597396850586
9.45019817352295
9.490797996520996
9.386898040771484
9.418396949768066
9.649097442626953
9.219897270202637
9.509597778320312
9.41039752960205
9.502297401428223
9.528098106384277
9.772497177124023
9.845797538757324
9.785897254943848
9.889897346496582
10.41099739074707
10.38769817352295
10.06569766998291
10.036097526550293
9.890498161315918
9.651798248291016
9.667597770690918
9.521597862243652
9.657797813415527
9.376797676086426
9.096298217773438
9.607497215270996
9.762297630310059
9.661197662353516
9.474298477172852
8.849298477172852
8.7900972366333
9.298197746276855
9.60619831085205
9.58019733428955
9.319197654724121
9.4573974609375
9.39269733428955
9.298698425292969
9.220598220825195
8.990398406982422
9.302597999572754
9.167597770690918
9.572797775268555
9.422098159790039
8.871997833251953
8.889698028564453
9.000298500061035
8.810197830200195
8.673197746276855
8.9233980178833
9.40939712524414
9.558298110961914
9.121397972106934
8.885397911071777
9.01269817352295
9.29919719696045
9.417998313903809
8.873398780822754
8.675897598266602
9.160297393798828
9.165597915649414
9.233097076416016
9.711197853088379
9.482198715209961
9.012897491455078
9.534597396850586
9.665497779846191
9.368597030639648
9.590697288513184
9.413697242736816
9.289998054504395
9.13869857788086
8.80589771270752
9.07919692993164
9.059798240661621
8.730998039245605
8.743497848510742
8.610398292541504
8.805097579956055
9.472698211669922
9.558597564697266
8.921897888183594
8.893097877502441
9.00259780883789
9.098498344421387
9.36629867553711
9.0621976852417
9.070398330688477
9.629698753356934
9.7333984375
9.476696968078613
9.588098526000977
9.565998077392578
9.331997871398926
9.590397834777832
9.671998023986816
9.513298034667969
9.412097930908203
9.343297958374023
9.224298477172852
9.093997955322266
9.406598091125488
9.287497520446777
9.59219741821289
9.495697975158691
8.943297386169434
8.742697715759277
8.859698295593262
9.110797882080078
9.503098487854004
9.816797256469727
9.471298217773438
9.272997856140137
9.5798978805542
9.5306978225708
9.088598251342773
9.167298316955566
9.230097770690918
9.08399772644043
9.315698623657227
9.319997787475586
9.356497764587402
9.4056978225708
9.3406982421875
9.267897605895996
9.578198432922363
9.574398040771484
9.69289779663086
9.542498588562012
9.206398010253906
9.149097442626953
9.336297988891602
9.456498146057129
9.433298110961914
9.439098358154297
8.821297645568848
8.421298027038574
8.864097595214844
8.9681978225708
9.291997909545898
9.312597274780273
9.004298210144043
8.781497955322266
8.942197799682617
9.536898612976074
9.48649787902832
9.33559799194336
9.489997863769531
9.282998085021973
9.508798599243164
9.783098220825195
9.651397705078125
9.109097480773926
9.024497985839844
9.351597785949707
9.173898696899414
9.072298049926758
9.116497993469238
9.398298263549805
9.760498046875
9.523797988891602
9.261197090148926
8.797098159790039
8.45939826965332
9.151397705078125
9.706198692321777
9.2048978805542
9.044097900390625
9.089598655700684
8.910798072814941
9.20899772644043
9.575997352600098
9.246297836303711
9.059198379516602
9.0483980178833
9.068997383117676
9.273797988891602
9.44959831237793
9.506197929382324
9.201798439025879
9.096497535705566
9.277497291564941
9.089698791503906
9.236897468566895
8.875297546386719
8.76009750366211
8.72349739074707
9.070097923278809
9.27619743347168
9.24849796295166
9.355298042297363
9.066798210144043
8.868297576904297
8.762598037719727
8.729898452758789
8.796797752380371
9.116997718811035
9.032697677612305
8.497797966003418
8.781197547912598
9.460797309875488
9.288497924804688
9.272797584533691
9.139498710632324
9.491097450256348
9.22359848022461
8.812697410583496
9.065197944641113
8.896297454833984
8.252697944641113
8.542098045349121
8.946197509765625
8.75069808959961
8.95469856262207
9.455497741699219
9.467798233032227
9.512897491455078
9.723196983337402
9.47549819946289
9.152398109436035
8.980398178100586
8.788997650146484
9.0433988571167
9.203198432922363
8.937997817993164
9.04389762878418
9.463098526000977
9.449697494506836
9.370497703552246
8.727197647094727
8.679998397827148
9.227197647094727
9.30309772491455
9.169997215270996
9.333198547363281
8.723398208618164
8.721096992492676
8.573397636413574
8.971597671508789
8.421497344970703
8.651798248291016
9.071297645568848
8.962198257446289
8.704498291015625
8.20369815826416
8.23649787902832
8.698497772216797
9.073997497558594
9.365097999572754
9.168997764587402
8.890297889709473
9.137397766113281
9.409197807312012
8.912697792053223
8.897198677062988
9.011898040771484
9.305397987365723
9.502198219299316
9.413698196411133
9.397597312927246
8.974298477172852
8.88979721069336
9.265398025512695
9.194297790527344
8.996898651123047
9.114797592163086
8.91729736328125
8.988797187805176
9.102997779846191
8.816497802734375
8.71059799194336
8.666698455810547
9.068497657775879
9.594197273254395
9.78349781036377
9.943697929382324
9.930996894836426
9.681397438049316
9.437897682189941
9.277198791503906
9.39999771118164
9.991098403930664
9.491098403930664
9.161297798156738
9.441997528076172
9.751598358154297
9.531797409057617
9.32619857788086
9.683197975158691
9.523497581481934
9.310497283935547
9.369498252868652
9.366497993469238
9.252298355102539
9.246498107910156
9.092798233032227
8.688797950744629
8.717297554016113
9.3077974319458
9.041598320007324
8.649297714233398
8.424798011779785
8.573198318481445
9.110998153686523
9.229297637939453
8.847397804260254
9.114297866821289
9.446998596191406
9.460097312927246
9.487597465515137
9.266998291015625
8.933097839355469
9.047597885131836
9.245497703552246
9.205097198486328
9.142498016357422
9.157097816467285
8.801497459411621
8.627898216247559
9.012798309326172
9.563797950744629
9.441898345947266
9.375297546386719
9.569698333740234
9.484097480773926
8.968398094177246
9.128297805786133
9.387397766113281
9.1694974899292
8.902597427368164
9.037397384643555
9.040797233581543
9.370098114013672
9.428497314453125
9.660597801208496
9.290997505187988
8.928598403930664
8.815197944641113
8.953598022460938
9.336398124694824
9.588797569274902
9.956598281860352
9.589198112487793
9.123196601867676
8.741798400878906
8.647897720336914
8.845097541809082
9.280998229980469
9.37569808959961
9.717798233032227
10.115696907043457
9.932297706604004
9.22349739074707
9.221697807312012
9.413698196411133
9.43659782409668
9.629597663879395
9.983498573303223
9.699897766113281
9.374297142028809
9.308597564697266
9.132698059082031
9.387798309326172
9.510297775268555
9.332398414611816
9.367098808288574
9.399798393249512
9.32809829711914
9.144198417663574
9.122797966003418
9.038898468017578
9.402697563171387
8.976397514343262
9.174696922302246
9.567997932434082
10.041797637939453
9.603797912597656
9.439297676086426
9.287797927856445
9.006298065185547
9.046897888183594
8.87759780883789
8.799198150634766
8.957497596740723
8.944397926330566
9.295997619628906
9.182097434997559
8.70589828491211
8.616898536682129
8.977697372436523
9.040897369384766
9.101597785949707
9.27659797668457
9.231597900390625
9.4775972366333
8.988198280334473
8.785597801208496
8.622097969055176
9.00949764251709
8.775498390197754
8.960898399353027
9.272297859191895
8.973797798156738
8.69129753112793
8.694897651672363
8.868697166442871
9.254197120666504
9.09539794921875
9.100398063659668
8.86999797821045
8.762897491455078
8.865497589111328
9.404097557067871
9.208897590637207
8.925798416137695
8.974596977233887
9.03609848022461
9.479897499084473
9.749397277832031
9.449997901916504
9.301998138427734
9.434698104858398
9.34129810333252
9.454097747802734
9.414697647094727
9.057297706604004
8.762197494506836
8.458697319030762
8.75989818572998
9.251797676086426
9.06249713897705
8.490898132324219
8.9681978225708
9.318798065185547
8.336897850036621
8.310197830200195
9.15939712524414
9.559198379516602
9.41979694366455
9.259198188781738
9.40469741821289
8.930498123168945
8.610998153686523
8.770998001098633
9.284297943115234
9.447197914123535
9.565498352050781
9.8171968460083
9.713297843933105
9.491097450256348
9.604897499084473
9.604297637939453
9.590797424316406
9.771597862243652
9.3785982131958
9.192697525024414
9.524798393249512
10.004297256469727
9.565797805786133
9.037497520446777
9.286297798156738
9.165197372436523
8.974597930908203
9.031397819519043
8.831398010253906
9.11679744720459
9.30629825592041
9.22039794921875
9.794398307800293
9.893797874450684
9.256797790527344
8.81669807434082
9.1329984664917
8.89689826965332
8.710997581481934
9.114297866821289
9.179298400878906
9.30019760131836
9.353597640991211
9.131097793579102
8.97039794921875
8.921998023986816
8.931097984313965
9.208697319030762
9.37939739227295
9.413198471069336
9.331498146057129
9.00069808959961
8.715997695922852
8.909197807312012
8.813998222351074
8.64809799194336
8.879898071289062
9.002298355102539
9.167998313903809
9.648998260498047
9.609598159790039
9.115398406982422
8.885598182678223
8.931697845458984
8.897797584533691
9.000597953796387
9.093597412109375
8.909697532653809
9.244097709655762
9.181297302246094
8.751697540283203
9.363597869873047
