EpRewMean
0.5699999928474426
0.6000000238418579
0.7599999904632568
0.75
0.8050000071525574
0.9300000071525574
0.7149999737739563
0.7049999833106995
0.9549999833106995
1.0199999809265137
1.059999942779541
1.1150000095367432
0.9300000071525574
1.1549999713897705
1.1649999618530273
1.1449999809265137
1.0099999904632568
1.090000033378601
1.0499999523162842
1.1050000190734863
1.0950000286102295
1.149999976158142
1.1749999523162842
1.215000033378601
1.2549999952316284
1.1549999713897705
1.2799999713897705
1.159999966621399
1.2799999713897705
1.25
1.4199999570846558
1.340000033378601
1.475000023841858
1.440000057220459
1.3450000286102295
1.375
1.4900000095367432
1.25
1.434999942779541
1.534999966621399
1.5449999570846558
1.4900000095367432
1.524999976158142
1.5850000381469727
1.7050000429153442
1.7000000476837158
1.5750000476837158
1.5800000429153442
1.684999942779541
1.590000033378601
1.4500000476837158
1.409999966621399
1.465000033378601
1.6549999713897705
1.465000033378601
1.6050000190734863
1.4900000095367432
1.5449999570846558
1.375
1.7350000143051147
1.6050000190734863
1.6200000047683716
1.7000000476837158
1.565000057220459
1.4600000381469727
1.399999976158142
1.4850000143051147
1.4500000476837158
1.440000057220459
1.3300000429153442
1.4149999618530273
1.2999999523162842
1.4800000190734863
1.7599999904632568
1.5750000476837158
1.5149999856948853
1.6100000143051147
1.7799999713897705
1.590000033378601
1.3849999904632568
1.4199999570846558
1.7599999904632568
1.4249999523162842
1.5449999570846558
1.5299999713897705
1.5049999952316284
1.4950000047683716
1.5750000476837158
1.409999966621399
1.3899999856948853
1.524999976158142
1.4550000429153442
1.4149999618530273
1.475000023841858
1.4149999618530273
1.3600000143051147
1.409999966621399
1.3550000190734863
1.5499999523162842
1.5149999856948853
1.4700000286102295
1.4950000047683716
1.5099999904632568
1.440000057220459
1.4900000095367432
1.5
1.3849999904632568
1.4850000143051147
1.6950000524520874
1.559999942779541
1.8300000429153442
1.690000057220459
1.6150000095367432
1.524999976158142
1.434999942779541
1.5299999713897705
1.559999942779541
1.5299999713897705
1.4950000047683716
1.590000033378601
1.6699999570846558
1.6399999856948853
1.4149999618530273
1.4149999618530273
1.4700000286102295
1.6449999809265137
1.4850000143051147
1.75
1.4550000429153442
1.3949999809265137
1.559999942779541
1.4199999570846558
1.475000023841858
1.4600000381469727
1.649999976158142
1.399999976158142
1.4550000429153442
1.4249999523162842
1.4550000429153442
1.315000057220459
1.3049999475479126
1.4299999475479126
1.375
1.4249999523162842
1.315000057220459
1.3899999856948853
1.4049999713897705
1.7000000476837158
1.4550000429153442
1.5499999523162842
1.3600000143051147
1.4600000381469727
1.5499999523162842
1.5149999856948853
1.5299999713897705
1.590000033378601
1.524999976158142
1.3300000429153442
1.5449999570846558
1.3799999952316284
1.4049999713897705
1.3899999856948853
1.4800000190734863
1.3849999904632568
1.4249999523162842
1.475000023841858
1.5750000476837158
1.5099999904632568
1.6399999856948853
1.3899999856948853
1.5399999618530273
1.4299999475479126
1.4600000381469727
1.3700000047683716
1.3600000143051147
1.6150000095367432
1.4800000190734863
1.3300000429153442
1.600000023841858
1.4299999475479126
1.5149999856948853
1.6100000143051147
1.524999976158142
1.6349999904632568
1.4550000429153442
1.649999976158142
1.6100000143051147
1.899999976158142
1.5449999570846558
1.565000057220459
1.5299999713897705
1.7400000095367432
1.600000023841858
1.7200000286102295
1.4900000095367432
1.5149999856948853
1.559999942779541
1.5950000286102295
1.6299999952316284
1.5850000381469727
1.6349999904632568
1.5950000286102295
1.5800000429153442
1.6399999856948853
1.565000057220459
1.5549999475479126
1.6200000047683716
1.7549999952316284
1.6699999570846558
1.7599999904632568
1.7450000047683716
1.8799999952316284
1.690000057220459
1.6749999523162842
1.75
1.9199999570846558
1.9800000190734863
1.7799999713897705
1.8600000143051147
2.075000047683716
2.075000047683716
2.075000047683716
1.940000057220459
1.8550000190734863
1.7649999856948853
1.9850000143051147
2.1449999809265137
2.1700000762939453
2.1700000762939453
2.1050000190734863
2.174999952316284
2.194999933242798
2.25
2.319999933242798
2.4149999618530273
2.375
2.309999942779541
2.319999933242798
2.4600000381469727
2.2899999618530273
2.255000114440918
2.3949999809265137
2.390000104904175
2.5299999713897705
2.559999942779541
2.390000104904175
2.509999990463257
2.505000114440918
2.2899999618530273
2.509999990463257
2.740000009536743
2.634999990463257
2.5399999618530273
2.565000057220459
2.694999933242798
2.9149999618530273
3.0999999046325684
2.884999990463257
2.755000114440918
2.6050000190734863
2.4700000286102295
2.569999933242798
2.555000066757202
2.565000057220459
2.440000057220459
2.484999895095825
2.515000104904175
2.6449999809265137
2.815000057220459
2.740000009536743
2.634999990463257
2.6549999713897705
2.755000114440918
2.809999942779541
2.755000114440918
2.8499999046325684
2.884999990463257
2.6600000858306885
2.5899999141693115
2.619999885559082
2.7300000190734863
2.924999952316284
3.2149999141693115
3.309999942779541
3.2049999237060547
2.9200000762939453
3.0
3.2799999713897705
3.3949999809265137
3.2799999713897705
3.5250000953674316
3.5450000762939453
3.440000057220459
3.365000009536743
3.444999933242798
3.430000066757202
3.325000047683716
3.444999933242798
3.4049999713897705
3.424999952316284
3.5399999618530273
3.7149999141693115
3.430000066757202
3.575000047683716
3.5899999141693115
3.734999895095825
3.7699999809265137
3.744999885559082
3.7799999713897705
4.010000228881836
4.005000114440918
3.809999942779541
3.7300000190734863
3.819999933242798
3.930000066757202
3.9049999713897705
3.934999942779541
3.819999933242798
3.8949999809265137
3.865000009536743
4.034999847412109
4.144999980926514
4.119999885559082
4.005000114440918
4.005000114440918
3.9549999237060547
3.809999942779541
4.010000228881836
3.9600000381469727
4.114999771118164
4.15500020980835
4.360000133514404
4.369999885559082
4.235000133514404
4.014999866485596
3.8350000381469727
3.799999952316284
3.994999885559082
4.059999942779541
4.135000228881836
4.15500020980835
4.170000076293945
4.284999847412109
4.260000228881836
4.40500020980835
4.394999980926514
4.485000133514404
4.184999942779541
4.054999828338623
3.8949999809265137
3.9200000762939453
4.03000020980835
4.010000228881836
4.164999961853027
4.329999923706055
4.329999923706055
4.389999866485596
4.545000076293945
4.534999847412109
4.585000038146973
4.309999942779541
4.309999942779541
4.34499979019165
4.429999828338623
4.449999809265137
4.349999904632568
4.275000095367432
4.260000228881836
4.454999923706055
4.675000190734863
4.695000171661377
4.699999809265137
4.570000171661377
4.639999866485596
4.585000038146973
4.789999961853027
4.730000019073486
4.855000019073486
4.760000228881836
4.769999980926514
4.789999961853027
5.045000076293945
5.0
4.980000019073486
5.059999942779541
4.75
4.644999980926514
4.675000190734863
4.715000152587891
4.815000057220459
4.78000020980835
4.925000190734863
5.105000019073486
4.925000190734863
5.010000228881836
5.070000171661377
4.985000133514404
5.320000171661377
5.179999828338623
5.105000019073486
4.855000019073486
4.849999904632568
4.804999828338623
4.710000038146973
4.789999961853027
4.885000228881836
4.784999847412109
5.010000228881836
5.0
4.920000076293945
5.019999980926514
4.824999809265137
4.894999980926514
5.119999885559082
5.099999904632568
5.28000020980835
5.28000020980835
5.329999923706055
5.159999847412109
4.989999771118164
4.914999961853027
4.920000076293945
5.170000076293945
5.380000114440918
5.235000133514404
5.275000095367432
5.059999942779541
4.755000114440918
4.864999771118164
5.039999961853027
5.300000190734863
5.309999942779541
5.28000020980835
5.215000152587891
4.815000057220459
4.679999828338623
4.474999904632568
4.875
5.110000133514404
5.255000114440918
5.53000020980835
5.369999885559082
5.184999942779541
5.014999866485596
5.065000057220459
4.494999885559082
4.639999866485596
4.704999923706055
4.985000133514404
4.994999885559082
4.989999771118164
5.125
5.235000133514404
5.269999980926514
5.210000038146973
5.429999828338623
5.534999847412109
5.875
5.980000019073486
5.985000133514404
5.889999866485596
5.710000038146973
5.53000020980835
5.340000152587891
5.574999809265137
5.940000057220459
6.355000019073486
6.244999885559082
6.195000171661377
6.110000133514404
5.764999866485596
6.119999885559082
6.119999885559082
6.21999979019165
6.0
6.239999771118164
6.679999828338623
6.320000171661377
6.139999866485596
5.65500020980835
5.739999771118164
5.994999885559082
6.315000057220459
6.5
6.40500020980835
6.545000076293945
6.619999885559082
7.139999866485596
7.139999866485596
7.045000076293945
6.894999980926514
7.284999847412109
7.239999771118164
7.320000171661377
7.03000020980835
7.09499979019165
6.855000019073486
7.010000228881836
6.760000228881836
6.980000019073486
6.965000152587891
6.644999980926514
6.795000076293945
6.704999923706055
7.199999809265137
7.230000019073486
7.070000171661377
6.920000076293945
6.954999923706055
7.079999923706055
7.21999979019165
7.454999923706055
7.554999828338623
7.585000038146973
7.329999923706055
7.340000152587891
7.420000076293945
7.789999961853027
7.860000133514404
8.045000076293945
8.1899995803833
8.399999618530273
8.255000114440918
8.175000190734863
7.635000228881836
7.744999885559082
7.775000095367432
7.989999771118164
8.239999771118164
8.109999656677246
7.849999904632568
7.90500020980835
8.194999694824219
8.015000343322754
7.960000038146973
8.414999961853027
8.78499984741211
9.079999923706055
9.149999618530273
8.670000076293945
8.59000015258789
8.40999984741211
8.430000305175781
8.364999771118164
8.489999771118164
8.725000381469727
9.020000457763672
9.229999542236328
9.3100004196167
8.5649995803833
7.909999847412109
7.699999809265137
8.045000076293945
9.0
8.975000381469727
9.260000228881836
8.930000305175781
8.71500015258789
7.965000152587891
7.954999923706055
8.180000305175781
7.840000152587891
8.010000228881836
8.100000381469727
8.725000381469727
8.96500015258789
9.039999961853027
8.6850004196167
8.515000343322754
8.390000343322754
8.135000228881836
8.789999961853027
9.029999732971191
9.289999961853027
9.28499984741211
9.539999961853027
9.725000381469727
9.515000343322754
9.614999771118164
9.045000076293945
8.579999923706055
8.890000343322754
8.90999984741211
8.539999961853027
8.96500015258789
9.045000076293945
9.5600004196167
9.510000228881836
9.164999961853027
8.369999885559082
8.324999809265137
8.649999618530273
8.795000076293945
8.404999732971191
8.760000228881836
8.920000076293945
9.029999732971191
8.34000015258789
8.954999923706055
9.045000076293945
9.234999656677246
8.4350004196167
8.170000076293945
7.914999961853027
7.880000114440918
8.015000343322754
8.364999771118164
8.739999771118164
8.335000038146973
7.929999828338623
7.599999904632568
7.585000038146973
7.630000114440918
7.695000171661377
7.534999847412109
7.585000038146973
8.015000343322754
8.109999656677246
8.204999923706055
8.574999809265137
8.6899995803833
9.020000457763672
8.795000076293945
8.65999984741211
8.335000038146973
8.654999732971191
8.8100004196167
9.050000190734863
9.069999694824219
8.9399995803833
9.4350004196167
9.449999809265137
9.555000305175781
9.375
9.324999809265137
9.244999885559082
8.994999885559082
9.414999961853027
9.710000038146973
10.225000381469727
9.930000305175781
9.635000228881836
9.0600004196167
9.380000114440918
9.71500015258789
9.84000015258789
9.885000228881836
10.475000381469727
10.78499984741211
10.829999923706055
10.1850004196167
9.5649995803833
9.484999656677246
9.399999618530273
9.260000228881836
9.164999961853027
9.055000305175781
9.21500015258789
9.600000381469727
9.520000457763672
9.649999618530273
9.795000076293945
9.579999923706055
9.904999732971191
10.484999656677246
10.649999618530273
10.510000228881836
9.645000457763672
9.164999961853027
9.670000076293945
9.9399995803833
10.1899995803833
9.970000267028809
10.005000114440918
10.03499984741211
9.829999923706055
9.970000267028809
9.854999542236328
9.989999771118164
10.380000114440918
10.329999923706055
9.845000267028809
9.470000267028809
9.604999542236328
9.4399995803833
9.289999961853027
9.25
9.270000457763672
9.739999771118164
9.850000381469727
9.864999771118164
9.65999984741211
9.539999961853027
8.904999732971191
8.6850004196167
8.925000190734863
9.795000076293945
9.850000381469727
9.78499984741211
9.619999885559082
9.484999656677246
9.399999618530273
8.994999885559082
8.824999809265137
8.479999542236328
8.625
8.710000038146973
8.899999618530273
9.199999809265137
8.630000114440918
9.09000015258789
9.194999694824219
9.09000015258789
8.805000305175781
9.119999885559082
9.225000381469727
9.585000038146973
9.0600004196167
9.010000228881836
9.779999732971191
9.484999656677246
9.630000114440918
9.109999656677246
9.390000343322754
9.484999656677246
9.539999961853027
9.210000038146973
8.5649995803833
9.380000114440918
9.789999961853027
9.854999542236328
9.5600004196167
9.6899995803833
9.96500015258789
10.470000267028809
10.470000267028809
10.484999656677246
10.010000228881836
10.395000457763672
10.295000076293945
10.345000267028809
10.5649995803833
10.194999694824219
9.875
9.854999542236328
9.994999885559082
10.744999885559082
10.5
10.0600004196167
9.579999923706055
9.90999984741211
9.944999694824219
9.539999961853027
9.539999961853027
9.329999923706055
9.789999961853027
9.755000114440918
10.074999809265137
10.225000381469727
10.305000305175781
10.305000305175781
10.109999656677246
10.104999542236328
10.109999656677246
10.225000381469727
9.774999618530273
9.699999809265137
9.364999771118164
10.175000190734863
10.28499984741211
10.3100004196167
10.279999732971191
10.475000381469727
10.300000190734863
10.135000228881836
10.420000076293945
10.354999542236328
10.4350004196167
10.449999809265137
10.479999542236328
10.694999694824219
10.885000228881836
10.770000457763672
10.755000114440918
10.270000457763672
9.994999885559082
10.175000190734863
10.694999694824219
10.975000381469727
11.244999885559082
11.175000190734863
10.829999923706055
10.449999809265137
10.739999771118164
10.949999809265137
11.40999984741211
11.670000076293945
11.770000457763672
11.755000114440918
11.765000343322754
11.640000343322754
11.079999923706055
10.789999961853027
10.414999961853027
10.524999618530273
10.704999923706055
10.960000038146973
10.869999885559082
11.050000190734863
10.930000305175781
10.670000076293945
10.380000114440918
10.369999885559082
10.260000228881836
10.574999809265137
10.270000457763672
9.975000381469727
9.630000114440918
10.395000457763672
10.949999809265137
10.779999732971191
10.239999771118164
10.199999809265137
10.28499984741211
10.354999542236328
10.875
10.9350004196167
10.960000038146973
10.864999771118164
10.925000190734863
11.319999694824219
11.199999809265137
10.765000343322754
10.420000076293945
10.149999618530273
9.699999809265137
10.029999732971191
10.039999961853027
10.425000190734863
10.550000190734863
10.4350004196167
10.324999809265137
10.28499984741211
9.9399995803833
9.604999542236328
9.664999961853027
10.395000457763672
10.78499984741211
10.96500015258789
10.399999618530273
10.854999542236328
10.550000190734863
10.829999923706055
10.835000038146973
11.020000457763672
11.4399995803833
11.524999618530273
11.3100004196167
10.84000015258789
10.704999923706055
10.8100004196167
10.545000076293945
10.579999923706055
10.795000076293945
10.710000038146973
10.555000305175781
10.274999618530273
10.680000305175781
11.079999923706055
11.404999732971191
10.845000267028809
10.975000381469727
11.140000343322754
11.645000457763672
11.850000381469727
11.449999809265137
11.34000015258789
10.954999923706055
11.095000267028809
10.760000228881836
11.024999618530273
10.90999984741211
10.65999984741211
11.109999656677246
12.09000015258789
11.819999694824219
11.710000038146973
11.194999694824219
10.854999542236328
10.755000114440918
11.244999885559082
11.454999923706055
11.4350004196167
11.34000015258789
11.569999694824219
11.694999694824219
12.074999809265137
11.5
11.774999618530273
11.335000038146973
11.234999656677246
11.579999923706055
11.470000267028809
11.1850004196167
10.859999656677246
10.600000381469727
10.640000343322754
10.194999694824219
9.850000381469727
10.65999984741211
11.204999923706055
11.050000190734863
10.765000343322754
9.899999618530273
10.0600004196167
10.335000038146973
10.569999694824219
10.239999771118164
10.305000305175781
10.460000038146973
10.954999923706055
11.545000076293945
11.380000114440918
11.555000305175781
11.539999961853027
11.545000076293945
11.479999542236328
11.34000015258789
11.5600004196167
11.649999618530273
11.324999809265137
11.505000114440918
11.6850004196167
11.920000076293945
12.005000114440918
11.329999923706055
11.59000015258789
11.489999771118164
11.494999885559082
11.244999885559082
11.494999885559082
11.390000343322754
10.90999984741211
10.5600004196167
10.824999809265137
11.050000190734863
11.239999771118164
11.095000267028809
11.295000076293945
11.505000114440918
11.380000114440918
11.380000114440918
11.550000190734863
11.694999694824219
11.145000457763672
11.354999542236328
11.704999923706055
12.1850004196167
11.899999618530273
12.079999923706055
11.979999542236328
11.760000228881836
11.274999618530273
10.704999923706055
10.449999809265137
10.755000114440918
11.4399995803833
11.345000267028809
11.710000038146973
11.109999656677246
11.4399995803833
11.420000076293945
11.9399995803833
11.78499984741211
11.515000343322754
11.289999961853027
11.5600004196167
11.345000267028809
11.194999694824219
11.100000381469727
11.0649995803833
11.020000457763672
11.220000267028809
11.710000038146973
11.510000228881836
11.5
11.305000305175781
11.795000076293945
11.354999542236328
11.119999885559082
11.0649995803833
11.324999809265137
11.199999809265137
11.244999885559082
10.904999732971191
10.630000114440918
10.28499984741211
10.675000190734863
10.994999885559082
11.454999923706055
11.829999923706055
11.829999923706055
11.925000190734863
11.444999694824219
11.15999984741211
10.8149995803833
10.975000381469727
10.595000267028809
10.789999961853027
11.5600004196167
12.21500015258789
12.25
11.899999618530273
11.5649995803833
11.210000038146973
11.970000267028809
11.805000305175781
11.8100004196167
11.425000190734863
11.654999732971191
11.970000267028809
12.204999923706055
11.6899995803833
12.170000076293945
12.050000190734863
11.854999542236328
11.074999809265137
10.84000015258789
10.949999809265137
10.920000076293945
11.345000267028809
11.454999923706055
11.954999923706055
12.289999961853027
11.850000381469727
11.75
11.569999694824219
11.3149995803833
11.300000190734863
11.34000015258789
11.539999961853027
11.760000228881836
11.505000114440918
11.119999885559082
11.199999809265137
11.375
12.470000267028809
12.109999656677246
12.385000228881836
11.4350004196167
11.289999961853027
10.739999771118164
10.970000267028809
11.40999984741211
11.21500015258789
11.295000076293945
11.5
11.545000076293945
10.904999732971191
11.03499984741211
10.829999923706055
11.295000076293945
11.194999694824219
11.279999732971191
10.930000305175781
10.975000381469727
11.239999771118164
11.194999694824219
11.289999961853027
11.255000114440918
12.170000076293945
12.020000457763672
12.390000343322754
11.670000076293945
11.8100004196167
11.604999542236328
11.9399995803833
11.760000228881836
11.555000305175781
11.494999885559082
12.244999885559082
11.71500015258789
11.944999694824219
12.135000228881836
12.119999885559082
11.9399995803833
12.069999694824219
12.380000114440918
11.539999961853027
11.914999961853027
11.6850004196167
11.454999923706055
11.8100004196167
11.760000228881836
11.510000228881836
11.944999694824219
11.8149995803833
11.829999923706055
11.649999618530273
11.135000228881836
11.029999732971191
10.6899995803833
11.045000076293945
11.765000343322754
12.03499984741211
11.5600004196167
11.430000305175781
11.015000343322754
11.109999656677246
11.109999656677246
11.21500015258789
11.460000038146973
11.6850004196167
12.260000228881836
11.979999542236328
11.595000267028809
11.135000228881836
11.1850004196167
11.420000076293945
11.555000305175781
11.364999771118164
11.71500015258789
11.385000228881836
11.545000076293945
12.194999694824219
12.3100004196167
12.114999771118164
11.600000381469727
11.859999656677246
11.890000343322754
12.149999618530273
12.375
11.789999961853027
11.84000015258789
12.395000457763672
12.739999771118164
12.1850004196167
12.104999542236328
11.5600004196167
11.65999984741211
11.180000305175781
11.520000457763672
11.335000038146973
10.779999732971191
10.895000457763672
11.329999923706055
12.0600004196167
11.489999771118164
11.175000190734863
11.425000190734863
12.210000038146973
11.925000190734863
11.994999885559082
12.0649995803833
12.460000038146973
12.25
12.020000457763672
11.675000190734863
11.260000228881836
11.260000228881836
11.505000114440918
11.680000305175781
11.305000305175781
11.225000381469727
12.050000190734863
11.944999694824219
11.904999732971191
11.579999923706055
11.574999809265137
11.085000038146973
11.220000267028809
11.029999732971191
11.119999885559082
11.229999542236328
11.489999771118164
11.460000038146973
11.359999656677246
11.104999542236328
11.345000267028809
11.380000114440918
11.095000267028809
11.994999885559082
11.890000343322754
12.15999984741211
11.539999961853027
11.550000190734863
11.305000305175781
11.635000228881836
11.960000038146973
11.4399995803833
11.4350004196167
11.329999923706055
12.100000381469727
12.479999542236328
11.899999618530273
11.770000457763672
11.045000076293945
11.050000190734863
11.229999542236328
11.425000190734863
11.145000457763672
11.765000343322754
12.135000228881836
12.34000015258789
12.149999618530273
12.199999809265137
12.104999542236328
11.680000305175781
11.720000267028809
12.175000190734863
12.154999732971191
12.369999885559082
12.225000381469727
12.085000038146973
11.96500015258789
11.9350004196167
12.4399995803833
12.484999656677246
12.635000228881836
11.84000015258789
11.425000190734863
11.670000076293945
11.864999771118164
11.59000015258789
11.765000343322754
11.505000114440918
11.274999618530273
11.194999694824219
11.569999694824219
11.510000228881836
11.65999984741211
11.4399995803833
11.470000267028809
11.515000343322754
11.59000015258789
12.095000267028809
11.585000038146973
11.505000114440918
11.904999732971191
11.539999961853027
11.274999618530273
12.095000267028809
12.305000305175781
12.265000343322754
11.829999923706055
11.414999961853027
11.824999809265137
11.895000457763672
12.375
12.114999771118164
11.970000267028809
11.864999771118164
12.25
12.145000457763672
11.914999961853027
11.460000038146973
11.050000190734863
10.850000381469727
11.354999542236328
11.46500015258789
11.46500015258789
11.9350004196167
12.119999885559082
12.069999694824219
11.399999618530273
11.050000190734863
11.135000228881836
11.520000457763672
11.904999732971191
11.720000267028809
12.15999984741211
12.265000343322754
12.600000381469727
12.654999732971191
12.550000190734863
12.529999732971191
12.324999809265137
12.265000343322754
12.305000305175781
12.460000038146973
12.414999961853027
12.274999618530273
11.864999771118164
12.1899995803833
12.289999961853027
11.994999885559082
11.395000457763672
11.819999694824219
11.885000228881836
11.869999885559082
11.890000343322754
11.84000015258789
11.71500015258789
12.234999656677246
12.220000267028809
12.380000114440918
12.630000114440918
12.630000114440918
12.430000305175781
11.925000190734863
11.989999771118164
12.350000381469727
12.4350004196167
12.25
12.005000114440918
12.295000076293945
12.619999885559082
12.354999542236328
11.845000267028809
11.869999885559082
12.0649995803833
11.925000190734863
11.729999542236328
11.4350004196167
11.095000267028809
10.920000076293945
11.71500015258789
12.149999618530273
12.489999771118164
12.3149995803833
12.545000076293945
12.430000305175781
12.25
12.399999618530273
12.180000305175781
12.005000114440918
11.494999885559082
11.835000038146973
11.529999732971191
12.104999542236328
11.760000228881836
12.1850004196167
11.994999885559082
12.21500015258789
12.295000076293945
12.550000190734863
12.649999618530273
12.515000343322754
12.385000228881836
12.425000190734863
12.119999885559082
11.829999923706055
12.029999732971191
11.960000038146973
12.505000114440918
12.300000190734863
12.244999885559082
11.505000114440918
11.555000305175781
12.140000343322754
12.4399995803833
12.914999961853027
12.835000038146973
13.055000305175781
12.609999656677246
12.154999732971191
12.175000190734863
12.375
12.40999984741211
11.880000114440918
12.210000038146973
12.029999732971191
11.625
11.744999885559082
11.614999771118164
12.15999984741211
11.654999732971191
12.050000190734863
11.854999542236328
12.289999961853027
11.904999732971191
11.65999984741211
11.710000038146973
11.680000305175781
11.744999885559082
11.864999771118164
12.279999732971191
12.479999542236328
12.699999809265137
12.734999656677246
12.720000267028809
12.604999542236328
12.395000457763672
12.755000114440918
12.390000343322754
12.204999923706055
11.954999923706055
12.239999771118164
12.210000038146973
12.395000457763672
12.0
12.369999885559082
12.430000305175781
12.505000114440918
12.71500015258789
12.819999694824219
12.949999809265137
13.229999542236328
12.989999771118164
12.520000457763672
12.0
12.5600004196167
12.75
12.595000267028809
12.3100004196167
12.170000076293945
12.8149995803833
12.5
12.515000343322754
12.420000076293945
12.6850004196167
12.885000228881836
12.744999885559082
13.265000343322754
13.300000190734863
12.800000190734863
13.055000305175781
12.984999656677246
12.875
12.505000114440918
12.079999923706055
12.585000038146973
12.670000076293945
13.069999694824219
12.755000114440918
12.829999923706055
12.680000305175781
12.835000038146973
12.949999809265137
13.020000457763672
13.09000015258789
12.430000305175781
12.194999694824219
12.5600004196167
12.845000267028809
12.979999542236328
12.305000305175781
12.5649995803833
12.390000343322754
12.149999618530273
11.850000381469727
12.53499984741211
12.925000190734863
12.619999885559082
12.130000114440918
11.295000076293945
11.654999732971191
12.1850004196167
12.734999656677246
13.164999961853027
13.220000267028809
13.015000343322754
12.819999694824219
12.835000038146973
13.050000190734863
13.140000343322754
12.6850004196167
12.484999656677246
12.069999694824219
11.960000038146973
12.550000190734863
13.164999961853027
13.279999732971191
13.164999961853027
12.970000267028809
13.380000114440918
12.979999542236328
13.055000305175781
12.954999923706055
12.805000305175781
12.3149995803833
12.515000343322754
12.114999771118164
12.899999618530273
12.954999923706055
13.005000114440918
12.555000305175781
12.725000381469727
12.260000228881836
12.489999771118164
12.930000305175781
13.039999961853027
13.359999656677246
13.65999984741211
12.859999656677246
13.029999732971191
12.835000038146973
12.805000305175781
12.350000381469727
12.350000381469727
12.59000015258789
12.6899995803833
12.149999618530273
11.944999694824219
12.154999732971191
12.494999885559082
12.524999618530273
13.15999984741211
13.239999771118164
13.279999732971191
12.755000114440918
12.875
12.65999984741211
12.555000305175781
12.5649995803833
12.479999542236328
12.604999542236328
12.149999618530273
11.845000267028809
11.880000114440918
12.350000381469727
13.265000343322754
12.925000190734863
13.045000076293945
13.395000457763672
13.760000228881836
13.770000457763672
13.520000457763672
13.944999694824219
13.864999771118164
13.864999771118164
13.449999809265137
13.244999885559082
12.555000305175781
12.755000114440918
12.789999961853027
