EpRewMean
1.2182741165161133
1.375
1.600000023841858
1.5750000476837158
1.9249999523162842
1.6749999523162842
1.9249999523162842
1.4500000476837158
1.649999976158142
1.475000023841858
1.8250000476837158
1.7999999523162842
1.5750000476837158
1.75
1.850000023841858
1.774999976158142
2.0
2.0250000953674316
1.5750000476837158
2.174999952316284
1.625
1.649999976158142
1.9249999523162842
1.649999976158142
1.649999976158142
1.9500000476837158
2.325000047683716
2.125
1.899999976158142
1.975000023841858
1.9249999523162842
1.9500000476837158
2.0
1.8250000476837158
2.2750000953674316
2.5
2.9000000953674316
3.174999952316284
3.200000047683716
3.5250000953674316
3.200000047683716
3.4000000953674316
3.700000047683716
3.825000047683716
3.924999952316284
3.0
3.674999952316284
3.75
4.074999809265137
4.275000095367432
4.275000095367432
3.875
3.674999952316284
3.7750000953674316
4.150000095367432
4.125
3.950000047683716
3.9000000953674316
3.799999952316284
3.9749999046325684
4.425000190734863
3.950000047683716
4.125
4.025000095367432
4.125
4.224999904632568
4.25
4.125
4.125
4.474999904632568
4.25
4.025000095367432
3.9000000953674316
4.224999904632568
4.650000095367432
4.474999904632568
4.5
4.474999904632568
4.449999809265137
4.125
4.550000190734863
4.199999809265137
4.449999809265137
4.675000190734863
4.724999904632568
4.699999809265137
3.9749999046325684
4.525000095367432
4.199999809265137
4.550000190734863
4.400000095367432
4.400000095367432
5.125
4.474999904632568
4.949999809265137
4.300000190734863
4.800000190734863
4.349999904632568
4.824999809265137
4.400000095367432
4.775000095367432
4.949999809265137
4.300000190734863
4.724999904632568
4.974999904632568
4.875
4.625
4.849999904632568
4.724999904632568
5.199999809265137
5.525000095367432
5.25
5.349999904632568
5.0
5.25
4.875
5.425000190734863
4.849999904632568
5.425000190734863
4.625
5.375
5.699999809265137
5.525000095367432
5.425000190734863
5.025000095367432
5.474999904632568
6.150000095367432
5.425000190734863
5.300000190734863
5.525000095367432
5.275000095367432
5.074999809265137
5.125
5.150000095367432
5.550000190734863
5.5
5.349999904632568
5.800000190734863
5.574999809265137
5.824999809265137
5.974999904632568
5.550000190734863
5.150000095367432
5.400000095367432
5.900000095367432
5.75
5.349999904632568
5.925000190734863
6.025000095367432
5.525000095367432
5.824999809265137
5.949999809265137
5.900000095367432
5.949999809265137
5.275000095367432
5.449999809265137
6.0
5.775000095367432
5.599999904632568
5.949999809265137
5.925000190734863
5.400000095367432
6.025000095367432
5.699999809265137
6.125
5.900000095367432
5.949999809265137
6.349999904632568
5.75
5.900000095367432
5.775000095367432
6.25
6.425000190734863
6.625
6.099999904632568
5.949999809265137
5.800000190734863
5.900000095367432
5.949999809265137
5.699999809265137
6.099999904632568
6.574999809265137
6.175000190734863
6.449999809265137
6.324999809265137
6.349999904632568
6.275000095367432
6.050000190734863
5.900000095367432
5.900000095367432
6.099999904632568
6.449999809265137
6.324999809265137
6.800000190734863
6.650000095367432
6.675000190734863
6.175000190734863
6.150000095367432
6.824999809265137
6.125
6.175000190734863
6.224999904632568
6.150000095367432
6.525000095367432
6.625
6.849999904632568
6.525000095367432
6.574999809265137
6.699999809265137
6.599999904632568
6.824999809265137
6.800000190734863
6.974999904632568
6.425000190734863
6.599999904632568
6.925000190734863
6.974999904632568
6.925000190734863
7.150000095367432
7.025000095367432
6.974999904632568
6.75
6.849999904632568
7.175000190734863
6.974999904632568
7.125
6.974999904632568
6.724999904632568
7.324999809265137
7.074999809265137
7.125
7.224999904632568
7.025000095367432
6.974999904632568
7.25
7.125
7.324999809265137
7.724999904632568
7.074999809265137
7.349999904632568
6.900000095367432
7.375
6.900000095367432
7.375
7.25
7.050000190734863
7.275000095367432
7.699999809265137
7.474999904632568
7.324999809265137
7.349999904632568
7.224999904632568
7.625
7.199999809265137
7.050000190734863
6.974999904632568
7.125
7.150000095367432
7.525000095367432
7.074999809265137
7.099999904632568
7.25
7.300000190734863
7.300000190734863
7.224999904632568
7.625
7.125
7.199999809265137
7.474999904632568
7.074999809265137
6.800000190734863
7.074999809265137
7.5
7.275000095367432
7.449999809265137
7.074999809265137
7.074999809265137
6.925000190734863
7.400000095367432
7.349999904632568
7.324999809265137
7.074999809265137
7.224999904632568
7.349999904632568
7.275000095367432
7.474999904632568
7.324999809265137
7.099999904632568
7.574999809265137
7.550000190734863
6.974999904632568
6.974999904632568
7.150000095367432
7.074999809265137
7.099999904632568
6.949999809265137
7.150000095367432
6.724999904632568
7.474999904632568
7.199999809265137
7.224999904632568
7.474999904632568
6.949999809265137
7.074999809265137
7.025000095367432
7.550000190734863
7.800000190734863
7.625
7.599999904632568
7.599999904632568
7.650000095367432
7.599999904632568
8.050000190734863
8.425000190734863
7.525000095367432
8.074999809265137
7.675000190734863
7.824999809265137
7.675000190734863
7.449999809265137
7.599999904632568
7.775000095367432
7.675000190734863
7.824999809265137
7.375
8.175000190734863
7.775000095367432
7.974999904632568
7.800000190734863
8.375
8.274999618530273
8.100000381469727
7.875
7.574999809265137
8.225000381469727
7.925000190734863
7.650000095367432
8.425000190734863
8.350000381469727
8.0
8.0
8.149999618530273
8.149999618530273
7.875
8.050000190734863
8.350000381469727
7.949999809265137
8.375
8.399999618530273
8.024999618530273
7.775000095367432
8.050000190734863
8.0
8.274999618530273
7.925000190734863
8.475000381469727
8.5
8.175000190734863
8.125
8.024999618530273
8.399999618530273
8.375
8.024999618530273
8.125
7.974999904632568
8.574999809265137
8.300000190734863
8.699999809265137
8.625
8.300000190734863
8.274999618530273
8.324999809265137
8.725000381469727
8.324999809265137
8.399999618530273
8.175000190734863
8.449999809265137
7.949999809265137
8.475000381469727
8.524999618530273
8.399999618530273
8.449999809265137
8.125
8.449999809265137
8.25
8.475000381469727
8.449999809265137
8.350000381469727
8.475000381469727
8.225000381469727
8.574999809265137
8.550000190734863
8.274999618530273
8.100000381469727
8.274999618530273
8.449999809265137
7.949999809265137
8.0
8.125
8.375
8.875
8.5
8.300000190734863
8.524999618530273
8.25
8.574999809265137
8.5
8.649999618530273
8.574999809265137
8.225000381469727
8.199999809265137
8.375
8.850000381469727
8.375
8.850000381469727
8.524999618530273
8.75
8.350000381469727
8.600000381469727
8.25
8.475000381469727
8.75
8.675000190734863
8.925000190734863
8.699999809265137
8.649999618530273
8.699999809265137
8.699999809265137
8.449999809265137
8.774999618530273
8.574999809265137
8.824999809265137
8.75
8.850000381469727
8.975000381469727
8.675000190734863
9.024999618530273
8.675000190734863
8.824999809265137
8.324999809265137
8.75
8.975000381469727
8.824999809265137
8.5
8.824999809265137
8.600000381469727
8.699999809265137
8.699999809265137
9.074999809265137
8.649999618530273
8.975000381469727
8.675000190734863
8.824999809265137
8.699999809265137
8.899999618530273
8.5
8.899999618530273
8.850000381469727
8.899999618530273
8.774999618530273
8.699999809265137
8.875
8.875
8.800000190734863
8.949999809265137
8.774999618530273
8.75
8.824999809265137
9.100000381469727
8.875
8.824999809265137
8.675000190734863
8.774999618530273
8.925000190734863
8.875
8.975000381469727
8.850000381469727
9.074999809265137
8.725000381469727
8.800000190734863
9.0
8.75
8.824999809265137
8.925000190734863
8.850000381469727
8.600000381469727
8.899999618530273
8.949999809265137
9.0
8.800000190734863
9.100000381469727
9.100000381469727
8.675000190734863
9.024999618530273
8.850000381469727
9.0
8.925000190734863
8.774999618530273
8.675000190734863
8.774999618530273
8.725000381469727
9.024999618530273
8.699999809265137
9.175000190734863
8.699999809265137
8.875
9.125
9.149999618530273
8.899999618530273
9.024999618530273
9.125
9.0
9.050000190734863
9.25
8.675000190734863
8.774999618530273
9.0
9.125
9.175000190734863
9.25
9.274999618530273
9.125
9.350000381469727
9.125
9.149999618530273
9.300000190734863
9.225000381469727
8.850000381469727
8.975000381469727
9.149999618530273
9.125
9.25
9.399999618530273
9.024999618530273
9.225000381469727
9.399999618530273
9.25
9.175000190734863
9.149999618530273
9.225000381469727
9.149999618530273
9.25
9.199999809265137
9.050000190734863
9.149999618530273
9.274999618530273
9.050000190734863
9.25
9.175000190734863
8.975000381469727
9.149999618530273
9.050000190734863
9.425000190734863
9.175000190734863
9.350000381469727
9.425000190734863
9.175000190734863
9.274999618530273
9.125
9.449999809265137
9.225000381469727
9.149999618530273
9.324999809265137
9.274999618530273
9.125
9.274999618530273
9.074999809265137
9.274999618530273
9.25
8.975000381469727
9.399999618530273
9.324999809265137
9.074999809265137
9.324999809265137
9.149999618530273
8.975000381469727
9.0
9.449999809265137
9.225000381469727
9.175000190734863
9.300000190734863
9.25
9.225000381469727
9.199999809265137
9.074999809265137
9.225000381469727
9.25
9.399999618530273
9.324999809265137
9.149999618530273
9.425000190734863
9.125
9.225000381469727
9.350000381469727
9.300000190734863
8.949999809265137
9.050000190734863
9.274999618530273
9.375
9.024999618530273
9.300000190734863
9.125
9.375
9.350000381469727
9.274999618530273
9.175000190734863
9.175000190734863
9.574999809265137
9.375
9.475000381469727
9.324999809265137
9.425000190734863
9.175000190734863
9.375
9.175000190734863
9.125
9.199999809265137
9.300000190734863
9.399999618530273
9.475000381469727
9.475000381469727
9.574999809265137
9.324999809265137
9.225000381469727
9.199999809265137
9.25
9.274999618530273
9.300000190734863
9.399999618530273
9.350000381469727
9.425000190734863
9.399999618530273
9.375
9.324999809265137
9.274999618530273
9.175000190734863
9.274999618530273
8.975000381469727
9.175000190734863
9.399999618530273
9.0
9.274999618530273
9.225000381469727
9.524999618530273
9.399999618530273
9.324999809265137
9.350000381469727
9.350000381469727
9.375
9.425000190734863
9.475000381469727
9.399999618530273
9.399999618530273
9.375
9.300000190734863
9.399999618530273
9.449999809265137
9.475000381469727
9.25
9.175000190734863
9.274999618530273
9.225000381469727
9.449999809265137
9.475000381469727
9.324999809265137
9.324999809265137
9.5
9.225000381469727
9.399999618530273
9.399999618530273
9.375
9.375
9.574999809265137
9.199999809265137
9.550000190734863
9.324999809265137
9.274999618530273
9.199999809265137
9.274999618530273
9.425000190734863
9.475000381469727
9.574999809265137
9.100000381469727
9.399999618530273
9.625
9.5
9.274999618530273
9.324999809265137
9.274999618530273
9.425000190734863
9.225000381469727
9.550000190734863
9.5
9.399999618530273
9.300000190734863
9.225000381469727
9.475000381469727
9.375
9.399999618530273
9.475000381469727
9.225000381469727
9.225000381469727
9.350000381469727
9.300000190734863
9.574999809265137
9.375
9.425000190734863
9.375
9.5
9.350000381469727
9.5
9.300000190734863
9.399999618530273
9.524999618530273
9.274999618530273
9.475000381469727
9.600000381469727
9.5
9.425000190734863
9.375
9.425000190734863
9.5
9.475000381469727
9.449999809265137
9.425000190734863
9.375
9.550000190734863
9.375
9.199999809265137
9.649999618530273
9.25
9.5
9.475000381469727
9.425000190734863
9.199999809265137
9.425000190734863
9.475000381469727
9.574999809265137
9.574999809265137
9.5
9.125
9.375
9.274999618530273
9.5
9.399999618530273
9.449999809265137
9.5
9.524999618530273
9.5
9.5
9.399999618530273
9.449999809265137
9.399999618530273
9.375
9.475000381469727
9.399999618530273
9.350000381469727
9.25
9.149999618530273
9.375
9.399999618530273
9.625
9.324999809265137
9.300000190734863
9.699999809265137
9.574999809265137
9.324999809265137
9.225000381469727
9.449999809265137
9.375
9.324999809265137
9.449999809265137
9.524999618530273
9.550000190734863
9.649999618530273
9.5
9.399999618530273
9.625
9.475000381469727
9.600000381469727
9.425000190734863
9.425000190734863
9.5
9.375
9.5
9.449999809265137
9.574999809265137
9.5
9.324999809265137
9.425000190734863
9.449999809265137
9.649999618530273
9.550000190734863
9.475000381469727
9.600000381469727
9.524999618530273
9.5
9.350000381469727
9.574999809265137
9.5
9.675000190734863
9.625
9.5
9.399999618530273
9.600000381469727
9.399999618530273
9.675000190734863
9.625
9.449999809265137
9.725000381469727
9.524999618530273
9.5
9.675000190734863
9.524999618530273
9.475000381469727
9.449999809265137
9.675000190734863
9.649999618530273
9.550000190734863
9.5
9.699999809265137
9.475000381469727
9.475000381469727
9.449999809265137
9.475000381469727
9.550000190734863
9.324999809265137
9.550000190734863
9.725000381469727
9.625
9.524999618530273
9.449999809265137
9.475000381469727
9.425000190734863
9.375
9.524999618530273
9.350000381469727
9.649999618530273
9.574999809265137
9.600000381469727
9.574999809265137
9.675000190734863
9.375
9.625
9.649999618530273
9.574999809265137
9.524999618530273
9.574999809265137
9.574999809265137
9.5
9.449999809265137
9.324999809265137
9.600000381469727
9.475000381469727
9.725000381469727
9.574999809265137
9.574999809265137
9.475000381469727
9.600000381469727
9.25
9.550000190734863
9.375
9.399999618530273
9.5
9.475000381469727
9.375
9.475000381469727
9.399999618530273
9.425000190734863
9.675000190734863
9.649999618530273
9.649999618530273
9.574999809265137
9.574999809265137
9.524999618530273
9.574999809265137
9.600000381469727
9.625
9.375
9.574999809265137
9.550000190734863
9.600000381469727
9.475000381469727
9.574999809265137
9.550000190734863
9.524999618530273
9.5
9.475000381469727
9.375
9.600000381469727
9.550000190734863
9.300000190734863
9.25
9.524999618530273
9.600000381469727
9.574999809265137
9.5
9.649999618530273
9.600000381469727
9.225000381469727
9.574999809265137
9.425000190734863
9.725000381469727
9.574999809265137
9.5
9.449999809265137
9.475000381469727
9.5
9.5
9.399999618530273
9.550000190734863
9.449999809265137
9.449999809265137
9.625
9.449999809265137
9.649999618530273
9.649999618530273
9.649999618530273
9.574999809265137
9.850000381469727
9.600000381469727
9.425000190734863
9.375
9.5
9.675000190734863
9.625
9.625
9.5
9.5
9.449999809265137
9.649999618530273
9.625
9.425000190734863
9.649999618530273
9.699999809265137
9.5
9.5
9.524999618530273
9.649999618530273
9.550000190734863
9.475000381469727
9.649999618530273
9.524999618530273
9.399999618530273
9.625
9.649999618530273
9.725000381469727
9.5
9.75
9.600000381469727
9.399999618530273
9.550000190734863
9.675000190734863
9.699999809265137
9.675000190734863
9.475000381469727
9.5
9.425000190734863
9.574999809265137
9.675000190734863
9.449999809265137
9.625
9.625
9.675000190734863
9.550000190734863
9.574999809265137
9.449999809265137
9.625
9.824999809265137
9.399999618530273
9.625
9.324999809265137
9.449999809265137
9.675000190734863
9.649999618530273
9.5
9.625
9.449999809265137
9.725000381469727
9.5
9.425000190734863
9.824999809265137
9.75
9.5
9.475000381469727
9.699999809265137
9.524999618530273
9.725000381469727
9.574999809265137
9.800000190734863
9.550000190734863
9.800000190734863
9.600000381469727
9.5
9.425000190734863
9.550000190734863
9.675000190734863
9.524999618530273
9.475000381469727
9.600000381469727
9.625
9.449999809265137
9.725000381469727
9.449999809265137
9.625
9.625
9.475000381469727
9.550000190734863
9.574999809265137
9.550000190734863
9.625
9.774999618530273
9.550000190734863
9.800000190734863
9.675000190734863
9.75
9.550000190734863
9.550000190734863
9.5
9.625
9.600000381469727
9.725000381469727
9.399999618530273
9.649999618530273
9.699999809265137
9.550000190734863
9.574999809265137
9.649999618530273
9.649999618530273
9.449999809265137
9.600000381469727
9.600000381469727
9.550000190734863
9.625
9.574999809265137
9.850000381469727
9.5
9.725000381469727
9.699999809265137
9.699999809265137
9.675000190734863
9.449999809265137
9.550000190734863
9.550000190734863
9.550000190734863
9.475000381469727
9.625
9.550000190734863
9.649999618530273
9.550000190734863
9.425000190734863
9.625
9.725000381469727
9.5
9.75
9.649999618530273
9.649999618530273
9.524999618530273
9.475000381469727
9.625
9.625
9.649999618530273
9.524999618530273
9.625
9.449999809265137
9.524999618530273
9.550000190734863
9.550000190734863
9.625
9.675000190734863
9.725000381469727
9.725000381469727
9.574999809265137
9.774999618530273
9.649999618530273
9.675000190734863
9.399999618530273
9.75
9.550000190734863
9.824999809265137
9.600000381469727
9.699999809265137
9.550000190734863
9.649999618530273
9.625
9.75
9.824999809265137
9.625
9.625
9.75
9.699999809265137
9.824999809265137
9.625
9.649999618530273
9.649999618530273
9.699999809265137
9.600000381469727
9.574999809265137
9.524999618530273
9.524999618530273
9.550000190734863
9.725000381469727
9.600000381469727
9.625
9.550000190734863
9.675000190734863
9.75
9.774999618530273
9.875
9.524999618530273
9.699999809265137
9.574999809265137
9.600000381469727
9.824999809265137
9.574999809265137
9.600000381469727
9.649999618530273
9.649999618530273
9.699999809265137
9.649999618530273
9.675000190734863
9.475000381469727
9.625
9.649999618530273
9.75
9.375
8.774999618530273
9.0
9.024999618530273
8.850000381469727
9.274999618530273
9.324999809265137
9.0
9.300000190734863
9.125
9.475000381469727
9.274999618530273
9.324999809265137
9.5
9.125
9.149999618530273
9.399999618530273
9.399999618530273
9.475000381469727
9.5
9.300000190734863
9.5
9.475000381469727
9.350000381469727
9.475000381469727
9.449999809265137
9.649999618530273
9.449999809265137
9.550000190734863
9.475000381469727
9.449999809265137
9.449999809265137
9.625
9.550000190734863
9.550000190734863
9.625
9.649999618530273
9.5
9.675000190734863
9.524999618530273
9.574999809265137
9.675000190734863
9.600000381469727
9.574999809265137
9.574999809265137
9.5
9.475000381469727
9.675000190734863
9.449999809265137
9.550000190734863
9.800000190734863
9.550000190734863
9.625
9.449999809265137
9.699999809265137
9.625
9.675000190734863
9.574999809265137
9.649999618530273
9.449999809265137
9.649999618530273
9.600000381469727
9.524999618530273
9.649999618530273
9.774999618530273
9.625
9.475000381469727
9.625
9.675000190734863
9.699999809265137
9.649999618530273
9.550000190734863
9.625
9.550000190734863
9.600000381469727
9.699999809265137
9.699999809265137
9.600000381469727
9.524999618530273
9.675000190734863
9.449999809265137
9.800000190734863
9.699999809265137
9.550000190734863
9.625
9.550000190734863
9.550000190734863
9.399999618530273
9.699999809265137
9.574999809265137
9.75
9.675000190734863
9.625
9.550000190734863
9.649999618530273
9.600000381469727
9.574999809265137
9.774999618530273
9.649999618530273
9.675000190734863
9.600000381469727
9.774999618530273
9.675000190734863
9.475000381469727
9.824999809265137
9.625
9.600000381469727
9.699999809265137
9.699999809265137
9.625
9.625
9.675000190734863
9.774999618530273
9.649999618530273
9.75
9.774999618530273
9.625
9.625
9.699999809265137
9.600000381469727
9.75
9.625
9.574999809265137
9.625
9.574999809265137
9.725000381469727
9.649999618530273
9.550000190734863
9.600000381469727
9.699999809265137
9.550000190734863
9.574999809265137
9.625
9.649999618530273
9.675000190734863
9.675000190734863
9.649999618530273
9.600000381469727
9.850000381469727
9.649999618530273
9.600000381469727
9.774999618530273
9.75
9.625
9.675000190734863
9.824999809265137
9.725000381469727
9.800000190734863
9.625
9.725000381469727
9.699999809265137
9.725000381469727
9.600000381469727
9.800000190734863
9.574999809265137
9.550000190734863
9.675000190734863
9.675000190734863
9.774999618530273
9.774999618530273
9.725000381469727
9.774999618530273
9.600000381469727
9.725000381469727
9.699999809265137
9.675000190734863
9.649999618530273
9.774999618530273
9.75
9.774999618530273
9.625
9.574999809265137
9.725000381469727
9.675000190734863
9.574999809265137
9.625
9.699999809265137
9.725000381469727
9.699999809265137
9.550000190734863
9.625
9.600000381469727
9.600000381469727
9.574999809265137
9.449999809265137
9.725000381469727
9.725000381469727
9.75
9.75
9.675000190734863
9.675000190734863
9.600000381469727
9.774999618530273
9.649999618530273
9.800000190734863
9.675000190734863
9.725000381469727
9.574999809265137
9.574999809265137
9.625
9.649999618530273
9.649999618530273
9.824999809265137
9.675000190734863
9.699999809265137
9.725000381469727
9.574999809265137
9.625
9.675000190734863
9.649999618530273
9.675000190734863
9.875
9.699999809265137
9.774999618530273
9.774999618530273
9.800000190734863
9.875
9.625
9.75
9.675000190734863
9.725000381469727
9.725000381469727
9.600000381469727
9.600000381469727
9.725000381469727
9.675000190734863
9.675000190734863
9.875
9.675000190734863
9.725000381469727
9.75
9.574999809265137
9.699999809265137
9.725000381469727
9.824999809265137
9.75
9.600000381469727
9.75
9.574999809265137
9.699999809265137
9.649999618530273
9.725000381469727
9.425000190734863
9.675000190734863
9.600000381469727
9.574999809265137
9.625
9.649999618530273
9.675000190734863
9.675000190734863
9.699999809265137
9.625
9.475000381469727
9.449999809265137
9.850000381469727
9.649999618530273
9.675000190734863
9.649999618530273
9.524999618530273
9.675000190734863
9.774999618530273
9.5
9.649999618530273
9.524999618530273
9.725000381469727
9.675000190734863
9.675000190734863
9.725000381469727
9.725000381469727
9.675000190734863
9.524999618530273
9.75
9.649999618530273
9.625
9.324999809265137
9.574999809265137
9.774999618530273
9.699999809265137
9.675000190734863
9.574999809265137
9.625
9.649999618530273
9.699999809265137
9.75
9.574999809265137
9.850000381469727
9.675000190734863
9.625
9.675000190734863
9.824999809265137
9.699999809265137
9.774999618530273
9.550000190734863
9.550000190734863
9.625
9.774999618530273
9.800000190734863
9.574999809265137
9.774999618530273
9.574999809265137
9.699999809265137
9.800000190734863
9.649999618530273
9.574999809265137
9.625
9.625
9.675000190734863
9.625
9.625
9.524999618530273
9.725000381469727
9.725000381469727
9.649999618530273
9.600000381469727
9.699999809265137
9.75
9.675000190734863
9.699999809265137
9.699999809265137
9.699999809265137
9.675000190734863
9.725000381469727
9.649999618530273
9.774999618530273
9.600000381469727
9.774999618530273
9.824999809265137
9.425000190734863
9.824999809265137
9.550000190734863
9.824999809265137
9.699999809265137
9.675000190734863
9.649999618530273
9.574999809265137
9.625
9.75
9.574999809265137
9.625
9.800000190734863
9.800000190734863
9.725000381469727
9.75
9.675000190734863
9.699999809265137
9.725000381469727
9.699999809265137
9.725000381469727
9.824999809265137
9.649999618530273
9.625
9.675000190734863
9.5
9.625
9.675000190734863
9.574999809265137
9.625
9.625
9.699999809265137
9.850000381469727
9.625
9.824999809265137
9.800000190734863
9.725000381469727
9.649999618530273
9.774999618530273
9.75
9.800000190734863
9.725000381469727
9.875
9.774999618530273
9.75
9.699999809265137
9.625
9.699999809265137
9.75
9.625
9.524999618530273
9.75
9.774999618530273
9.875
9.800000190734863
9.675000190734863
9.800000190734863
9.725000381469727
9.725000381469727
9.75
9.550000190734863
9.824999809265137
9.574999809265137
9.725000381469727
9.625
9.675000190734863
9.625
9.774999618530273
9.649999618530273
9.649999618530273
9.774999618530273
9.675000190734863
9.600000381469727
9.475000381469727
