EpRewMean
0.5049999952316284
0.6899999976158142
0.8199999928474426
0.9599999785423279
0.9350000023841858
0.8849999904632568
0.9549999833106995
1.0750000476837158
1.1649999618530273
1.284999966621399
1.2000000476837158
1.2450000047683716
0.9800000190734863
1.2649999856948853
1.1950000524520874
1.2050000429153442
1.0950000286102295
1.2599999904632568
1.3300000429153442
1.4249999523162842
1.590000033378601
1.4900000095367432
1.3949999809265137
1.3849999904632568
1.4800000190734863
1.4800000190734863
1.6699999570846558
1.4299999475479126
1.4550000429153442
1.6399999856948853
1.475000023841858
1.524999976158142
1.5449999570846558
1.475000023841858
1.524999976158142
1.440000057220459
1.5750000476837158
1.5149999856948853
1.3600000143051147
1.4850000143051147
1.590000033378601
1.5
1.475000023841858
1.5
1.4299999475479126
1.3700000047683716
1.5449999570846558
1.5499999523162842
1.5850000381469727
1.5099999904632568
1.434999942779541
1.6299999952316284
1.4049999713897705
1.475000023841858
1.5199999809265137
1.375
1.4450000524520874
1.6150000095367432
1.6649999618530273
1.465000033378601
1.5299999713897705
1.5099999904632568
1.5149999856948853
1.5
1.3799999952316284
1.3450000286102295
1.5449999570846558
1.4950000047683716
1.3700000047683716
1.5299999713897705
1.465000033378601
1.4850000143051147
1.4049999713897705
1.2699999809265137
1.2799999713897705
1.399999976158142
1.4950000047683716
1.559999942779541
1.565000057220459
1.4450000524520874
1.3049999475479126
1.4600000381469727
1.350000023841858
1.4249999523162842
1.3350000381469727
1.284999966621399
1.1200000047683716
1.2100000381469727
1.315000057220459
1.3899999856948853
1.4450000524520874
1.4249999523162842
1.5099999904632568
1.465000033378601
1.2999999523162842
1.4950000047683716
1.4550000429153442
1.375
1.5399999618530273
1.5549999475479126
1.5700000524520874
1.2999999523162842
1.3899999856948853
1.3650000095367432
1.465000033378601
1.4149999618530273
1.4199999570846558
1.4550000429153442
1.3849999904632568
1.4800000190734863
1.409999966621399
1.3899999856948853
1.5199999809265137
1.625
1.4900000095367432
1.5099999904632568
1.3899999856948853
1.25
1.409999966621399
1.3949999809265137
1.6200000047683716
1.6100000143051147
1.4850000143051147
1.715000033378601
1.3049999475479126
1.3350000381469727
1.774999976158142
1.440000057220459
1.3250000476837158
1.4900000095367432
1.534999966621399
1.659999966621399
1.590000033378601
1.4600000381469727
1.3700000047683716
1.534999966621399
1.4299999475479126
1.5800000429153442
1.6749999523162842
1.4450000524520874
1.315000057220459
1.2899999618530273
1.3350000381469727
1.534999966621399
1.5149999856948853
1.3300000429153442
1.4700000286102295
1.4950000047683716
1.434999942779541
1.3600000143051147
1.3450000286102295
1.4600000381469727
1.475000023841858
1.2300000190734863
1.274999976158142
1.2799999713897705
1.465000033378601
1.4049999713897705
1.3700000047683716
1.3550000190734863
1.3550000190734863
1.2799999713897705
1.534999966621399
1.5399999618530273
1.7000000476837158
1.5399999618530273
1.434999942779541
1.3949999809265137
1.25
1.4700000286102295
1.2799999713897705
1.3650000095367432
1.649999976158142
1.375
1.3899999856948853
1.3450000286102295
1.534999966621399
1.590000033378601
1.534999966621399
1.5950000286102295
1.7699999809265137
1.4800000190734863
1.5099999904632568
1.590000033378601
1.6299999952316284
1.5700000524520874
1.5499999523162842
1.5549999475479126
1.5850000381469727
1.6749999523162842
1.434999942779541
1.4700000286102295
1.590000033378601
1.6349999904632568
1.524999976158142
1.7300000190734863
1.5049999952316284
1.5199999809265137
1.565000057220459
1.534999966621399
1.815000057220459
1.659999966621399
1.6950000524520874
1.7450000047683716
1.8250000476837158
1.6349999904632568
1.5800000429153442
1.5750000476837158
1.6950000524520874
1.6549999713897705
1.6950000524520874
1.7050000429153442
1.7999999523162842
1.725000023841858
1.5800000429153442
1.649999976158142
1.7050000429153442
1.9900000095367432
1.75
1.8300000429153442
1.899999976158142
1.9199999570846558
2.005000114440918
1.784999966621399
2.1500000953674316
1.9850000143051147
2.0299999713897705
2.240000009536743
2.0250000953674316
1.9950000047683716
1.965000033378601
1.975000023841858
2.140000104904175
1.9900000095367432
2.0999999046325684
2.0
2.0899999141693115
2.119999885559082
2.1500000953674316
2.140000104904175
2.075000047683716
2.319999933242798
2.234999895095825
2.0450000762939453
2.4000000953674316
2.315000057220459
2.194999933242798
2.180000066757202
2.1700000762939453
2.015000104904175
2.049999952316284
2.0250000953674316
2.0850000381469727
2.194999933242798
2.369999885559082
2.509999990463257
2.380000114440918
2.359999895095825
2.2249999046325684
2.365000009536743
2.494999885559082
2.565000057220459
2.5199999809265137
2.4049999713897705
2.4600000381469727
2.680000066757202
2.7200000286102295
2.4800000190734863
2.505000114440918
2.559999942779541
2.5999999046325684
2.690000057220459
2.634999990463257
2.575000047683716
2.690000057220459
2.674999952316284
2.8299999237060547
2.799999952316284
2.680000066757202
2.6449999809265137
2.9700000286102295
2.9000000953674316
2.7850000858306885
2.8350000381469727
3.049999952316284
2.990000009536743
2.8550000190734863
2.9100000858306885
2.859999895095825
2.8949999809265137
2.930000066757202
2.9149999618530273
2.944999933242798
3.065000057220459
2.9049999713897705
2.940000057220459
2.934999942779541
2.875
3.0350000858306885
3.174999952316284
3.265000104904175
3.4100000858306885
3.25
3.375
3.180000066757202
2.9149999618530273
3.174999952316284
3.2950000762939453
3.3949999809265137
3.424999952316284
3.575000047683716
3.7049999237060547
3.4600000381469727
3.4700000286102295
3.505000114440918
3.509999990463257
3.265000104904175
3.2850000858306885
3.380000114440918
3.450000047683716
3.505000114440918
3.744999885559082
3.7799999713897705
3.5299999713897705
3.1700000762939453
3.2149999141693115
3.255000114440918
3.305000066757202
3.5799999237060547
3.6549999713897705
3.6700000762939453
3.7300000190734863
3.940000057220459
3.9549999237060547
4.074999809265137
3.8499999046325684
4.130000114440918
4.244999885559082
4.269999980926514
4.224999904632568
4.050000190734863
4.099999904632568
3.9800000190734863
3.9200000762939453
3.9649999141693115
4.010000228881836
4.184999942779541
3.8299999237060547
3.7750000953674316
3.625
3.805000066757202
3.744999885559082
3.609999895095825
3.609999895095825
3.5
3.5299999713897705
3.7799999713897705
3.509999990463257
3.0199999809265137
2.9700000286102295
3.119999885559082
3.0950000286102295
3.309999942779541
3.424999952316284
3.4000000953674316
3.4749999046325684
3.4649999141693115
3.4700000286102295
3.434999942779541
3.615000009536743
3.5850000381469727
3.575000047683716
3.575000047683716
3.819999933242798
3.859999895095825
3.9049999713897705
4.005000114440918
4.230000019073486
4.340000152587891
4.335000038146973
4.284999847412109
4.150000095367432
3.984999895095825
3.934999942779541
4.150000095367432
4.360000133514404
4.574999809265137
4.5
4.199999809265137
3.944999933242798
3.990000009536743
3.9149999618530273
3.799999952316284
3.75
3.6500000953674316
3.865000009536743
3.9049999713897705
4.179999828338623
4.304999828338623
4.300000190734863
3.984999895095825
4.135000228881836
4.275000095367432
4.385000228881836
4.400000095367432
4.164999961853027
4.224999904632568
4.284999847412109
4.525000095367432
4.644999980926514
4.744999885559082
4.664999961853027
4.400000095367432
4.804999828338623
4.684999942779541
4.820000171661377
4.755000114440918
4.695000171661377
4.630000114440918
4.71999979019165
4.889999866485596
4.934999942779541
4.875
4.880000114440918
4.960000038146973
5.15500020980835
5.28000020980835
5.239999771118164
4.929999828338623
4.940000057220459
4.885000228881836
4.934999942779541
4.894999980926514
5.070000171661377
5.139999866485596
5.050000190734863
4.835000038146973
4.804999828338623
5.005000114440918
5.045000076293945
5.375
5.050000190734863
4.994999885559082
4.784999847412109
4.809999942779541
5.125
5.204999923706055
5.269999980926514
5.054999828338623
5.0
5.09499979019165
5.045000076293945
5.190000057220459
5.119999885559082
5.130000114440918
5.324999809265137
5.574999809265137
5.795000076293945
5.829999923706055
6.215000152587891
5.769999980926514
5.800000190734863
5.96999979019165
5.96999979019165
6.164999961853027
6.255000114440918
6.304999828338623
6.465000152587891
6.304999828338623
6.324999809265137
6.130000114440918
6.315000057220459
6.425000190734863
6.275000095367432
5.980000019073486
6.175000190734863
6.164999961853027
6.605000019073486
6.550000190734863
6.355000019073486
6.255000114440918
6.284999847412109
6.164999961853027
6.255000114440918
6.429999828338623
6.304999828338623
6.099999904632568
6.510000228881836
6.795000076293945
7.034999847412109
6.619999885559082
6.335000038146973
6.050000190734863
6.550000190734863
6.579999923706055
7.034999847412109
6.824999809265137
7.15500020980835
7.09499979019165
6.985000133514404
6.840000152587891
6.864999771118164
7.164999961853027
7.53000020980835
7.59499979019165
7.505000114440918
6.90500020980835
6.519999980926514
6.885000228881836
7.085000038146973
7.230000019073486
7.085000038146973
6.704999923706055
6.440000057220459
7.0
7.53000020980835
7.494999885559082
7.179999828338623
7.034999847412109
7.21999979019165
7.235000133514404
7.054999828338623
7.420000076293945
7.184999942779541
7.550000190734863
7.699999809265137
7.454999923706055
7.755000114440918
7.90500020980835
8.369999885559082
8.234999656677246
7.909999847412109
7.614999771118164
7.159999847412109
6.869999885559082
6.960000038146973
7.190000057220459
7.264999866485596
7.514999866485596
7.380000114440918
7.559999942779541
7.300000190734863
7.619999885559082
7.875
8.154999732971191
7.610000133514404
7.534999847412109
7.590000152587891
7.764999866485596
7.65500020980835
7.965000152587891
7.925000190734863
7.985000133514404
8.095000267028809
8.204999923706055
8.305000305175781
8.104999542236328
8.109999656677246
8.0649995803833
7.949999809265137
8.21500015258789
8.140000343322754
8.335000038146973
7.914999961853027
8.15999984741211
8.494999885559082
9.125
9.239999771118164
8.819999694824219
8.59000015258789
8.194999694824219
8.4350004196167
8.444999694824219
8.944999694824219
8.895000457763672
9.5600004196167
9.425000190734863
9.675000190734863
9.270000457763672
8.824999809265137
8.5649995803833
8.619999885559082
8.699999809265137
8.255000114440918
8.25
8.0649995803833
8.75
8.824999809265137
9.015000343322754
8.869999885559082
9.350000381469727
8.979999542236328
8.930000305175781
8.524999618530273
8.505000114440918
8.984999656677246
9.444999694824219
9.585000038146973
9.40999984741211
8.899999618530273
8.675000190734863
8.255000114440918
8.319999694824219
8.375
8.295000076293945
8.710000038146973
8.949999809265137
9.140000343322754
8.720000267028809
8.550000190734863
8.300000190734863
8.364999771118164
8.170000076293945
9.0649995803833
9.555000305175781
9.734999656677246
9.494999885559082
8.904999732971191
8.835000038146973
8.925000190734863
9.225000381469727
8.979999542236328
8.805000305175781
8.8149995803833
8.925000190734863
9.510000228881836
9.670000076293945
9.774999618530273
9.664999961853027
9.430000305175781
9.265000343322754
8.869999885559082
9.350000381469727
9.489999771118164
9.390000343322754
8.869999885559082
9.074999809265137
9.135000228881836
9.664999961853027
9.994999885559082
9.710000038146973
9.130000114440918
8.989999771118164
9.510000228881836
9.619999885559082
9.795000076293945
9.920000076293945
9.59000015258789
9.46500015258789
9.420000076293945
9.520000457763672
9.180000305175781
9.104999542236328
9.210000038146973
9.145000457763672
9.095000267028809
9.03499984741211
9.545000076293945
9.704999923706055
9.5600004196167
9.244999885559082
8.789999961853027
9.369999885559082
10.0649995803833
10.180000305175781
9.5600004196167
8.994999885559082
9.53499984741211
9.710000038146973
9.255000114440918
9.039999961853027
9.494999885559082
9.925000190734863
9.789999961853027
9.350000381469727
8.90999984741211
9.425000190734863
9.704999923706055
9.864999771118164
9.175000190734863
9.074999809265137
8.975000381469727
9.274999618530273
9.375
9.574999809265137
9.979999542236328
9.795000076293945
9.520000457763672
9.420000076293945
9.324999809265137
8.850000381469727
8.920000076293945
9.164999961853027
9.520000457763672
9.779999732971191
9.899999618530273
10.140000343322754
9.954999923706055
9.649999618530273
9.305000305175781
9.204999923706055
9.645000457763672
10.585000038146973
10.539999961853027
9.975000381469727
8.970000267028809
9.220000267028809
9.505000114440918
9.625
9.46500015258789
9.699999809265137
9.6899995803833
10.074999809265137
10.114999771118164
10.380000114440918
10.34000015258789
10.375
10.079999923706055
9.744999885559082
9.210000038146973
9.510000228881836
10.015000343322754
10.130000114440918
10.154999732971191
9.8100004196167
9.895000457763672
10.005000114440918
10.0649995803833
10.225000381469727
10.399999618530273
10.5
10.59000015258789
10.574999809265137
10.699999809265137
10.350000381469727
10.345000267028809
10.460000038146973
10.329999923706055
10.460000038146973
9.899999618530273
9.555000305175781
9.510000228881836
10.239999771118164
10.255000114440918
10.420000076293945
10.180000305175781
10.010000228881836
10.244999885559082
10.904999732971191
10.545000076293945
10.404999732971191
9.904999732971191
10.345000267028809
10.489999771118164
10.954999923706055
11.300000190734863
11.444999694824219
11.154999732971191
11.145000457763672
10.529999732971191
10.274999618530273
9.9399995803833
9.989999771118164
10.255000114440918
9.920000076293945
10.079999923706055
10.375
10.899999618530273
11.03499984741211
10.960000038146973
10.854999542236328
10.800000190734863
10.300000190734863
10.640000343322754
10.699999809265137
10.630000114440918
10.460000038146973
9.6899995803833
9.805000305175781
9.864999771118164
9.75
10.210000038146973
10.0
10.354999542236328
10.324999809265137
10.194999694824219
10.104999542236328
10.135000228881836
10.130000114440918
10.414999961853027
11.28499984741211
11.100000381469727
11.270000457763672
10.890000343322754
10.21500015258789
10.335000038146973
10.050000190734863
10.414999961853027
10.699999809265137
10.994999885559082
11.015000343322754
10.710000038146973
10.710000038146973
10.774999618530273
10.9350004196167
10.9399995803833
10.795000076293945
10.739999771118164
10.859999656677246
10.635000228881836
10.59000015258789
10.194999694824219
10.210000038146973
9.875
9.789999961853027
10.385000228881836
10.585000038146973
10.21500015258789
10.6850004196167
10.819999694824219
11.239999771118164
10.850000381469727
11.28499984741211
11.104999542236328
10.979999542236328
10.675000190734863
10.5649995803833
10.640000343322754
10.789999961853027
11.125
11.4399995803833
11.015000343322754
10.354999542236328
10.319999694824219
10.015000343322754
9.979999542236328
9.979999542236328
10.260000228881836
10.744999885559082
10.6899995803833
10.670000076293945
10.744999885559082
10.710000038146973
10.835000038146973
10.720000267028809
10.805000305175781
10.859999656677246
10.710000038146973
10.875
10.479999542236328
10.835000038146973
10.53499984741211
10.630000114440918
10.579999923706055
10.515000343322754
10.420000076293945
10.6850004196167
10.704999923706055
10.954999923706055
11.295000076293945
11.555000305175781
11.395000457763672
11.0600004196167
10.270000457763672
9.954999923706055
10.350000381469727
10.835000038146973
10.739999771118164
10.8100004196167
10.4350004196167
10.569999694824219
10.649999618530273
11.03499984741211
11.135000228881836
11.479999542236328
11.295000076293945
10.720000267028809
10.579999923706055
10.4350004196167
11.260000228881836
11.390000343322754
11.734999656677246
11.649999618530273
11.404999732971191
11.085000038146973
10.854999542236328
11.135000228881836
11.145000457763672
10.835000038146973
10.904999732971191
10.789999961853027
11.145000457763672
11.279999732971191
11.720000267028809
11.664999961853027
11.704999923706055
11.140000343322754
10.75
10.704999923706055
11.074999809265137
11.109999656677246
11.335000038146973
10.895000457763672
10.635000228881836
11.039999961853027
10.854999542236328
10.53499984741211
10.675000190734863
11.210000038146973
11.024999618530273
10.859999656677246
11.25
11.414999961853027
11.074999809265137
10.3100004196167
10.3149995803833
10.805000305175781
11.4350004196167
11.260000228881836
10.494999885559082
10.515000343322754
10.824999809265137
10.795000076293945
11.0
10.614999771118164
10.675000190734863
10.539999961853027
10.585000038146973
10.579999923706055
10.645000457763672
10.824999809265137
11.515000343322754
11.420000076293945
11.875
11.46500015258789
11.274999618530273
11.71500015258789
11.630000114440918
11.630000114440918
11.640000343322754
11.845000267028809
11.5649995803833
11.460000038146973
11.479999542236328
11.734999656677246
11.9350004196167
11.725000381469727
11.869999885559082
11.630000114440918
11.710000038146973
11.444999694824219
11.84000015258789
11.664999961853027
11.819999694824219
12.09000015258789
11.78499984741211
11.425000190734863
11.34000015258789
11.460000038146973
11.369999885559082
10.819999694824219
10.395000457763672
10.069999694824219
10.350000381469727
10.895000457763672
11.095000267028809
11.694999694824219
11.774999618530273
11.979999542236328
11.760000228881836
11.704999923706055
11.210000038146973
10.975000381469727
10.789999961853027
11.53499984741211
11.859999656677246
11.460000038146973
11.395000457763672
11.635000228881836
11.5600004196167
11.460000038146973
11.404999732971191
11.699999809265137
11.515000343322754
11.734999656677246
11.010000228881836
11.145000457763672
10.869999885559082
11.475000381469727
11.770000457763672
11.9399995803833
12.154999732971191
11.350000381469727
11.154999732971191
11.1850004196167
11.5
11.390000343322754
11.414999961853027
11.859999656677246
11.484999656677246
11.369999885559082
11.699999809265137
11.574999809265137
11.335000038146973
11.890000343322754
11.850000381469727
12.039999961853027
11.199999809265137
11.34000015258789
11.104999542236328
11.095000267028809
11.010000228881836
10.744999885559082
10.96500015258789
11.510000228881836
11.9399995803833
11.890000343322754
11.5600004196167
11.295000076293945
11.125
10.854999542236328
11.274999618530273
11.699999809265137
11.539999961853027
11.579999923706055
11.595000267028809
11.444999694824219
11.609999656677246
11.579999923706055
11.880000114440918
11.494999885559082
11.895000457763672
11.720000267028809
11.824999809265137
11.989999771118164
11.774999618530273
11.65999984741211
12.079999923706055
11.899999618530273
11.944999694824219
11.585000038146973
11.890000343322754
12.135000228881836
12.25
12.204999923706055
11.944999694824219
12.050000190734863
12.180000305175781
12.345000267028809
12.539999961853027
12.84000015258789
12.5600004196167
12.354999542236328
12.270000457763672
12.625
12.364999771118164
11.904999732971191
11.680000305175781
12.420000076293945
12.449999809265137
12.680000305175781
11.779999732971191
11.880000114440918
11.6850004196167
11.875
12.145000457763672
12.229999542236328
12.130000114440918
11.805000305175781
11.779999732971191
11.869999885559082
11.854999542236328
11.289999961853027
11.210000038146973
11.680000305175781
11.899999618530273
12.015000343322754
12.175000190734863
12.3100004196167
12.125
11.90999984741211
12.164999961853027
12.119999885559082
12.0649995803833
12.324999809265137
12.28499984741211
12.319999694824219
11.975000381469727
12.274999618530273
12.164999961853027
12.704999923706055
12.444999694824219
12.420000076293945
12.295000076293945
12.395000457763672
12.5600004196167
12.539999961853027
12.029999732971191
11.619999885559082
10.78499984741211
11.380000114440918
12.0
12.65999984741211
12.739999771118164
11.664999961853027
11.6850004196167
11.944999694824219
12.305000305175781
12.4399995803833
12.109999656677246
12.319999694824219
12.024999618530273
12.225000381469727
12.029999732971191
12.59000015258789
12.40999984741211
12.46500015258789
12.279999732971191
11.805000305175781
12.295000076293945
12.795000076293945
13.0600004196167
12.675000190734863
12.260000228881836
12.164999961853027
12.619999885559082
12.220000267028809
12.145000457763672
11.529999732971191
11.994999885559082
11.505000114440918
11.819999694824219
11.744999885559082
12.244999885559082
12.524999618530273
11.614999771118164
11.5649995803833
11.819999694824219
12.095000267028809
11.725000381469727
11.520000457763672
11.654999732971191
11.75
11.364999771118164
11.345000267028809
11.779999732971191
12.0649995803833
11.859999656677246
11.1850004196167
11.414999961853027
11.515000343322754
11.770000457763672
11.890000343322754
11.845000267028809
11.8149995803833
11.880000114440918
12.5600004196167
12.619999885559082
12.494999885559082
11.989999771118164
12.145000457763672
11.539999961853027
11.53499984741211
11.704999923706055
11.600000381469727
11.854999542236328
11.319999694824219
11.550000190734863
11.755000114440918
12.255000114440918
12.050000190734863
12.404999732971191
12.1850004196167
12.270000457763672
11.890000343322754
12.170000076293945
12.015000343322754
12.430000305175781
12.28499984741211
12.1899995803833
11.805000305175781
12.050000190734863
12.204999923706055
12.135000228881836
11.970000267028809
11.369999885559082
11.6850004196167
11.895000457763672
12.0649995803833
11.345000267028809
11.475000381469727
11.805000305175781
12.055000305175781
11.925000190734863
12.045000076293945
12.125
11.854999542236328
11.930000305175781
11.954999923706055
11.619999885559082
11.34000015258789
11.604999542236328
11.895000457763672
12.425000190734863
11.710000038146973
11.420000076293945
11.425000190734863
11.65999984741211
11.779999732971191
12.154999732971191
12.260000228881836
12.404999732971191
12.430000305175781
12.329999923706055
12.494999885559082
12.430000305175781
12.295000076293945
12.074999809265137
11.859999656677246
11.829999923706055
11.71500015258789
11.630000114440918
11.675000190734863
11.59000015258789
11.819999694824219
11.954999923706055
12.369999885559082
12.5600004196167
12.539999961853027
12.369999885559082
12.210000038146973
11.9350004196167
11.880000114440918
12.46500015258789
12.5
12.460000038146973
12.239999771118164
11.944999694824219
12.279999732971191
11.824999809265137
12.0649995803833
11.960000038146973
12.390000343322754
12.805000305175781
12.890000343322754
12.760000228881836
12.699999809265137
12.585000038146973
12.630000114440918
12.720000267028809
12.119999885559082
12.095000267028809
11.46500015258789
11.725000381469727
12.3149995803833
12.475000381469727
12.34000015258789
12.3100004196167
12.569999694824219
12.055000305175781
12.135000228881836
12.510000228881836
12.604999542236328
12.800000190734863
12.770000457763672
12.664999961853027
12.279999732971191
12.354999542236328
12.305000305175781
12.0
11.930000305175781
11.920000076293945
12.8100004196167
12.470000267028809
12.53499984741211
12.210000038146973
13.095000267028809
12.850000381469727
13.140000343322754
12.454999923706055
12.345000267028809
12.234999656677246
12.34000015258789
12.609999656677246
12.170000076293945
12.71500015258789
12.979999542236328
13.03499984741211
12.875
12.430000305175781
12.4350004196167
12.335000038146973
12.114999771118164
12.359999656677246
12.604999542236328
12.515000343322754
11.949999809265137
11.954999923706055
12.305000305175781
12.265000343322754
12.489999771118164
12.329999923706055
12.21500015258789
12.0
12.729999542236328
12.789999961853027
12.819999694824219
12.885000228881836
12.829999923706055
12.430000305175781
11.8149995803833
11.505000114440918
11.345000267028809
11.029999732971191
11.069999694824219
10.979999542236328
10.550000190734863
10.5649995803833
10.149999618530273
10.774999618530273
11.029999732971191
11.744999885559082
12.125
12.1850004196167
12.085000038146973
11.944999694824219
11.454999923706055
11.755000114440918
12.175000190734863
12.024999618530273
12.3149995803833
12.494999885559082
12.375
12.170000076293945
11.885000228881836
12.069999694824219
11.954999923706055
11.829999923706055
11.989999771118164
11.869999885559082
11.864999771118164
12.234999656677246
12.09000015258789
12.395000457763672
12.25
12.369999885559082
12.03499984741211
12.319999694824219
12.515000343322754
12.204999923706055
11.720000267028809
11.484999656677246
11.614999771118164
11.859999656677246
11.854999542236328
11.699999809265137
11.96500015258789
11.59000015258789
12.15999984741211
12.524999618530273
12.649999618530273
12.720000267028809
12.359999656677246
12.055000305175781
12.0600004196167
12.069999694824219
12.579999923706055
12.664999961853027
12.744999885559082
12.555000305175781
12.300000190734863
11.760000228881836
12.029999732971191
11.854999542236328
12.369999885559082
12.3149995803833
12.800000190734863
13.194999694824219
13.109999656677246
12.595000267028809
12.229999542236328
12.119999885559082
12.140000343322754
12.1850004196167
12.555000305175781
12.529999732971191
12.824999809265137
12.585000038146973
12.619999885559082
12.524999618530273
12.350000381469727
12.5
12.550000190734863
12.640000343322754
12.40999984741211
12.380000114440918
12.595000267028809
12.914999961853027
12.770000457763672
12.1850004196167
12.050000190734863
12.1850004196167
12.595000267028809
12.819999694824219
12.9399995803833
13.039999961853027
12.4399995803833
12.704999923706055
12.359999656677246
12.390000343322754
12.640000343322754
12.545000076293945
12.425000190734863
12.5
12.239999771118164
12.140000343322754
12.170000076293945
12.515000343322754
12.854999542236328
13.085000038146973
13.074999809265137
12.494999885559082
12.579999923706055
12.475000381469727
12.470000267028809
12.354999542236328
11.829999923706055
11.414999961853027
11.699999809265137
12.260000228881836
12.529999732971191
12.904999732971191
12.640000343322754
12.664999961853027
12.579999923706055
12.0600004196167
12.074999809265137
12.619999885559082
13.119999885559082
13.0600004196167
12.395000457763672
11.774999618530273
11.869999885559082
12.21500015258789
11.960000038146973
12.600000381469727
12.805000305175781
12.654999732971191
12.979999542236328
13.289999961853027
13.71500015258789
13.380000114440918
13.119999885559082
13.260000228881836
12.390000343322754
12.225000381469727
12.8149995803833
13.1899995803833
13.305000305175781
12.619999885559082
12.614999771118164
12.6850004196167
12.904999732971191
12.520000457763672
12.875
13.03499984741211
13.354999542236328
13.125
12.734999656677246
12.175000190734863
12.75
13.524999618530273
13.899999618530273
13.579999923706055
12.975000381469727
12.524999618530273
12.154999732971191
12.28499984741211
12.079999923706055
12.845000267028809
13.020000457763672
13.024999618530273
12.449999809265137
12.555000305175781
12.630000114440918
13.005000114440918
12.640000343322754
12.984999656677246
12.819999694824219
12.914999961853027
12.270000457763672
12.28499984741211
12.404999732971191
12.904999732971191
12.460000038146973
12.635000228881836
12.880000114440918
13.164999961853027
12.824999809265137
13.210000038146973
12.779999732971191
12.720000267028809
12.154999732971191
12.675000190734863
12.489999771118164
12.739999771118164
12.71500015258789
12.654999732971191
12.484999656677246
12.489999771118164
12.774999618530273
12.385000228881836
12.354999542236328
12.335000038146973
12.380000114440918
12.614999771118164
12.149999618530273
11.765000343322754
11.850000381469727
12.720000267028809
12.630000114440918
12.710000038146973
12.454999923706055
12.100000381469727
12.760000228881836
12.6850004196167
