EpRewMean
10.0
10.0
10.0
1.5355805158615112
2.133333444595337
2.4539878368377686
2.617647171020508
1.625
1.975000023841858
2.25
2.4749999046325684
1.2999999523162842
1.75
2.0250000953674316
2.1500000953674316
1.375
1.625
1.9500000476837158
2.1500000953674316
1.25
1.5499999523162842
2.075000047683716
1.975000023841858
1.4249999523162842
1.7999999523162842
2.125
2.299999952316284
1.975000023841858
2.299999952316284
2.375
2.5
2.0
2.325000047683716
2.25
2.299999952316284
1.899999976158142
2.299999952316284
2.3499999046325684
2.424999952316284
2.0999999046325684
2.1500000953674316
2.125
1.649999976158142
1.725000023841858
1.8250000476837158
1.774999976158142
1.7999999523162842
2.0250000953674316
2.174999952316284
1.975000023841858
2.0
2.174999952316284
2.174999952316284
2.049999952316284
2.075000047683716
2.0
1.875
1.9249999523162842
1.75
1.725000023841858
1.774999976158142
1.6749999523162842
1.625
1.7000000476837158
1.725000023841858
1.975000023841858
2.0250000953674316
2.174999952316284
2.125
2.0
1.9500000476837158
1.8250000476837158
1.850000023841858
1.7999999523162842
1.9500000476837158
2.174999952316284
2.174999952316284
2.2249999046325684
2.2750000953674316
2.25
1.875
2.0250000953674316
2.049999952316284
1.850000023841858
1.774999976158142
1.7999999523162842
1.899999976158142
2.0
2.174999952316284
2.2750000953674316
2.424999952316284
2.4000000953674316
2.3499999046325684
2.325000047683716
2.0999999046325684
2.125
2.25
2.325000047683716
2.2249999046325684
2.200000047683716
2.125
2.049999952316284
2.1500000953674316
2.2249999046325684
2.2249999046325684
2.0999999046325684
2.125
2.174999952316284
1.975000023841858
1.975000023841858
2.0999999046325684
1.975000023841858
2.0250000953674316
1.9500000476837158
1.850000023841858
1.9249999523162842
1.9249999523162842
1.8250000476837158
1.6749999523162842
1.9249999523162842
1.850000023841858
1.9500000476837158
2.075000047683716
2.075000047683716
2.2249999046325684
2.200000047683716
2.174999952316284
2.0250000953674316
2.25
2.075000047683716
2.2750000953674316
2.424999952316284
2.375
2.0999999046325684
2.2249999046325684
2.0250000953674316
1.875
1.9500000476837158
2.125
2.075000047683716
2.0
1.9249999523162842
2.075000047683716
1.9249999523162842
1.7999999523162842
1.9249999523162842
2.0
2.1500000953674316
2.0250000953674316
2.299999952316284
2.5999999046325684
2.674999952316284
2.549999952316284
2.4749999046325684
2.3499999046325684
2.2249999046325684
2.0
2.0
2.0999999046325684
2.174999952316284
2.299999952316284
2.049999952316284
2.049999952316284
2.075000047683716
2.075000047683716
2.200000047683716
2.450000047683716
2.5250000953674316
2.549999952316284
2.424999952316284
2.450000047683716
2.375
2.125
2.0250000953674316
2.1500000953674316
2.375
2.424999952316284
2.4000000953674316
2.424999952316284
2.424999952316284
2.424999952316284
2.4749999046325684
2.424999952316284
2.4000000953674316
2.1500000953674316
2.2249999046325684
2.049999952316284
2.0250000953674316
2.2249999046325684
2.2750000953674316
2.375
2.325000047683716
2.2750000953674316
2.3499999046325684
2.4749999046325684
2.4749999046325684
2.3499999046325684
2.4000000953674316
2.4000000953674316
2.174999952316284
2.2249999046325684
2.4000000953674316
2.5
2.549999952316284
2.5250000953674316
2.450000047683716
2.3499999046325684
2.0250000953674316
2.075000047683716
2.0250000953674316
2.075000047683716
1.975000023841858
1.975000023841858
1.850000023841858
1.850000023841858
1.649999976158142
1.9249999523162842
2.0
2.0250000953674316
1.8250000476837158
1.8250000476837158
2.0250000953674316
2.049999952316284
2.125
2.5250000953674316
2.549999952316284
2.375
2.2750000953674316
2.174999952316284
2.075000047683716
2.0250000953674316
2.0
1.975000023841858
2.0999999046325684
2.0250000953674316
2.049999952316284
2.0
2.0250000953674316
2.174999952316284
2.174999952316284
2.2249999046325684
2.299999952316284
2.299999952316284
2.0
2.075000047683716
2.2750000953674316
2.25
2.125
2.4000000953674316
2.325000047683716
2.424999952316284
2.4749999046325684
2.5
2.3499999046325684
2.174999952316284
2.2750000953674316
2.325000047683716
2.450000047683716
2.5250000953674316
2.549999952316284
2.5
2.4000000953674316
2.25
2.125
2.3499999046325684
2.200000047683716
2.424999952316284
2.2249999046325684
2.299999952316284
2.2750000953674316
2.424999952316284
2.5
2.4749999046325684
2.5250000953674316
2.424999952316284
2.3499999046325684
2.2750000953674316
2.299999952316284
2.375
2.200000047683716
2.2750000953674316
2.299999952316284
2.2750000953674316
2.25
2.325000047683716
2.200000047683716
2.2249999046325684
2.174999952316284
2.0999999046325684
1.975000023841858
1.9500000476837158
2.0
1.9500000476837158
1.899999976158142
2.0250000953674316
2.0999999046325684
2.125
2.3499999046325684
2.2750000953674316
2.299999952316284
2.4000000953674316
2.5
2.549999952316284
2.700000047683716
2.625
2.5250000953674316
2.2750000953674316
2.075000047683716
1.899999976158142
1.899999976158142
2.049999952316284
2.299999952316284
2.375
2.2249999046325684
2.1500000953674316
2.174999952316284
2.0250000953674316
2.200000047683716
2.2750000953674316
2.3499999046325684
2.2249999046325684
2.200000047683716
2.2750000953674316
2.450000047683716
2.75
2.9749999046325684
2.924999952316284
2.7750000953674316
2.549999952316284
2.3499999046325684
2.25
2.2750000953674316
2.174999952316284
2.1500000953674316
2.200000047683716
2.075000047683716
2.325000047683716
2.375
2.2750000953674316
2.375
2.5
2.2750000953674316
2.25
2.2249999046325684
2.174999952316284
2.0250000953674316
2.125
2.1500000953674316
2.375
2.450000047683716
2.375
2.549999952316284
2.4000000953674316
2.375
2.2249999046325684
2.25
2.299999952316284
2.5250000953674316
2.700000047683716
2.549999952316284
2.549999952316284
2.5
2.4000000953674316
2.125
2.174999952316284
2.1500000953674316
2.1500000953674316
2.200000047683716
2.5250000953674316
2.625
2.4749999046325684
2.4749999046325684
2.2750000953674316
2.0250000953674316
2.075000047683716
2.25
2.2750000953674316
2.25
2.3499999046325684
2.0999999046325684
1.9500000476837158
1.8250000476837158
1.899999976158142
1.850000023841858
1.9249999523162842
1.875
2.0250000953674316
1.9500000476837158
2.200000047683716
2.174999952316284
2.2249999046325684
2.075000047683716
2.25
2.174999952316284
2.2249999046325684
2.25
2.2750000953674316
2.375
2.4000000953674316
2.2249999046325684
2.2249999046325684
2.2750000953674316
2.200000047683716
2.125
2.3499999046325684
2.200000047683716
2.3499999046325684
2.4000000953674316
2.4749999046325684
2.450000047683716
2.4749999046325684
2.4749999046325684
2.424999952316284
2.5
2.6500000953674316
2.625
2.6500000953674316
2.924999952316284
2.7249999046325684
2.4749999046325684
2.4000000953674316
2.174999952316284
2.299999952316284
2.200000047683716
2.375
2.625
2.6500000953674316
2.5999999046325684
2.6500000953674316
2.424999952316284
2.2750000953674316
2.2249999046325684
2.25
2.25
2.375
2.4749999046325684
2.674999952316284
2.700000047683716
2.7750000953674316
2.6500000953674316
2.75
2.674999952316284
2.6500000953674316
2.674999952316284
2.875
2.75
2.625
2.4000000953674316
2.3499999046325684
2.2249999046325684
2.174999952316284
2.125
2.1500000953674316
2.075000047683716
2.049999952316284
2.200000047683716
2.375
2.549999952316284
2.8499999046325684
2.799999952316284
2.7750000953674316
2.75
2.825000047683716
2.549999952316284
2.549999952316284
2.4749999046325684
2.424999952316284
2.4000000953674316
2.299999952316284
2.3499999046325684
2.424999952316284
2.4000000953674316
2.299999952316284
2.4000000953674316
2.125
2.049999952316284
2.049999952316284
2.075000047683716
2.0250000953674316
2.2249999046325684
2.549999952316284
2.75
2.950000047683716
3.075000047683716
3.0
2.8499999046325684
2.700000047683716
2.7249999046325684
2.575000047683716
2.549999952316284
2.575000047683716
2.5999999046325684
2.450000047683716
2.5
2.6500000953674316
2.700000047683716
2.7249999046325684
2.75
2.674999952316284
2.549999952316284
2.3499999046325684
2.2750000953674316
2.424999952316284
2.575000047683716
2.4749999046325684
2.575000047683716
2.5999999046325684
2.450000047683716
2.5250000953674316
2.700000047683716
2.700000047683716
2.825000047683716
2.700000047683716
2.700000047683716
2.549999952316284
2.575000047683716
2.375
2.2750000953674316
2.3499999046325684
2.3499999046325684
2.424999952316284
2.674999952316284
2.8499999046325684
2.799999952316284
2.75
2.6500000953674316
2.674999952316284
2.700000047683716
2.5
2.5999999046325684
2.5
2.5999999046325684
2.5999999046325684
2.6500000953674316
2.5250000953674316
2.5
2.6500000953674316
2.700000047683716
2.6500000953674316
2.625
2.5250000953674316
2.575000047683716
2.325000047683716
2.424999952316284
2.5
2.5
2.5250000953674316
2.5
2.4749999046325684
2.5250000953674316
2.5
2.3499999046325684
2.25
2.1500000953674316
1.9500000476837158
2.200000047683716
2.2750000953674316
2.375
2.5999999046325684
2.9000000953674316
2.8499999046325684
2.7249999046325684
2.7750000953674316
2.799999952316284
2.799999952316284
2.9749999046325684
3.0
2.7249999046325684
2.549999952316284
2.325000047683716
2.174999952316284
2.125
2.625
2.700000047683716
2.700000047683716
2.5
2.424999952316284
2.299999952316284
2.0
2.2249999046325684
2.450000047683716
2.575000047683716
2.6500000953674316
2.7249999046325684
2.375
2.2750000953674316
2.200000047683716
2.0999999046325684
2.0250000953674316
2.1500000953674316
2.25
2.25
2.325000047683716
2.25
2.25
2.200000047683716
2.1500000953674316
2.375
2.5
2.549999952316284
2.6500000953674316
2.625
2.549999952316284
2.549999952316284
2.575000047683716
2.5
2.7249999046325684
2.424999952316284
2.424999952316284
2.5250000953674316
2.450000047683716
2.2249999046325684
2.450000047683716
2.5
2.450000047683716
2.7249999046325684
2.950000047683716
2.825000047683716
2.7750000953674316
2.700000047683716
2.799999952316284
2.575000047683716
2.5
2.3499999046325684
2.299999952316284
2.075000047683716
2.2249999046325684
2.125
2.3499999046325684
2.4749999046325684
2.6500000953674316
2.7750000953674316
2.75
2.7249999046325684
3.0250000953674316
2.700000047683716
2.625
2.5999999046325684
2.5250000953674316
2.4000000953674316
2.6500000953674316
2.799999952316284
2.825000047683716
2.875
2.9749999046325684
2.924999952316284
3.0250000953674316
2.924999952316284
2.7750000953674316
2.575000047683716
2.674999952316284
2.625
2.6500000953674316
2.7249999046325684
2.75
2.575000047683716
2.5250000953674316
2.5999999046325684
2.6500000953674316
2.799999952316284
3.049999952316284
3.075000047683716
2.924999952316284
3.1500000953674316
2.825000047683716
2.7249999046325684
2.5
2.700000047683716
2.5999999046325684
2.825000047683716
2.924999952316284
3.25
3.2750000953674316
3.4000000953674316
3.2750000953674316
3.075000047683716
3.0250000953674316
2.924999952316284
2.700000047683716
2.549999952316284
2.75
2.7249999046325684
2.625
2.700000047683716
2.75
2.825000047683716
2.9000000953674316
2.950000047683716
2.9749999046325684
2.950000047683716
2.875
2.924999952316284
2.825000047683716
2.7750000953674316
2.700000047683716
2.674999952316284
2.700000047683716
2.799999952316284
3.049999952316284
3.0999999046325684
3.0250000953674316
3.075000047683716
3.25
3.200000047683716
3.4749999046325684
3.575000047683716
3.674999952316284
3.4749999046325684
3.3499999046325684
3.4749999046325684
3.5
3.299999952316284
3.575000047683716
3.6500000953674316
3.6500000953674316
3.4749999046325684
3.4749999046325684
3.450000047683716
2.9749999046325684
3.375
3.4000000953674316
3.299999952316284
3.4749999046325684
3.674999952316284
3.4749999046325684
3.5
3.575000047683716
3.2249999046325684
2.9749999046325684
2.9000000953674316
2.8499999046325684
2.8499999046325684
3.075000047683716
3.0
2.9749999046325684
3.0
2.799999952316284
2.575000047683716
2.75
2.875
3.1500000953674316
3.2750000953674316
3.200000047683716
3.3499999046325684
3.200000047683716
3.0999999046325684
3.0999999046325684
3.125
3.1500000953674316
3.125
3.424999952316284
3.325000047683716
3.625
3.5
3.299999952316284
2.924999952316284
3.049999952316284
3.125
3.0250000953674316
3.2750000953674316
3.5250000953674316
3.2750000953674316
3.0
3.0999999046325684
3.0250000953674316
2.875
3.0
3.049999952316284
2.950000047683716
3.125
3.075000047683716
3.25
3.325000047683716
3.25
3.1500000953674316
3.1500000953674316
3.1500000953674316
3.075000047683716
3.0250000953674316
3.049999952316284
3.0
3.200000047683716
3.075000047683716
3.325000047683716
3.299999952316284
3.2249999046325684
3.5999999046325684
3.674999952316284
3.3499999046325684
3.5250000953674316
3.5999999046325684
3.5250000953674316
3.5
3.4749999046325684
3.0999999046325684
2.950000047683716
2.700000047683716
2.924999952316284
3.075000047683716
3.075000047683716
3.200000047683716
3.2750000953674316
3.174999952316284
3.25
3.6500000953674316
3.424999952316284
3.299999952316284
3.4000000953674316
3.1500000953674316
3.1500000953674316
3.299999952316284
3.200000047683716
3.174999952316284
3.2249999046325684
3.450000047683716
3.625
3.8499999046325684
3.799999952316284
3.75
3.575000047683716
3.5
3.4749999046325684
3.424999952316284
3.325000047683716
3.6500000953674316
3.549999952316284
3.6500000953674316
3.674999952316284
3.5250000953674316
3.5250000953674316
3.5250000953674316
3.5
3.5
3.3499999046325684
3.375
3.299999952316284
3.325000047683716
3.424999952316284
3.325000047683716
3.125
3.0999999046325684
3.174999952316284
3.0250000953674316
3.075000047683716
3.049999952316284
3.1500000953674316
3.3499999046325684
3.2249999046325684
3.2249999046325684
3.200000047683716
3.424999952316284
3.4000000953674316
3.200000047683716
3.4000000953674316
3.424999952316284
3.5999999046325684
3.575000047683716
3.450000047683716
3.4000000953674316
3.4000000953674316
3.3499999046325684
3.4000000953674316
3.424999952316284
3.549999952316284
3.6500000953674316
3.9000000953674316
4.0
3.924999952316284
3.575000047683716
3.5
3.25
3.299999952316284
3.6500000953674316
3.7750000953674316
4.0
3.950000047683716
3.875
3.549999952316284
3.6500000953674316
3.700000047683716
3.674999952316284
3.7249999046325684
3.75
3.7750000953674316
3.924999952316284
3.75
3.8499999046325684
3.875
3.700000047683716
3.799999952316284
3.875
3.674999952316284
3.625
3.5999999046325684
3.4000000953674316
3.5250000953674316
3.575000047683716
3.674999952316284
3.5999999046325684
3.5250000953674316
3.575000047683716
3.5999999046325684
3.75
3.7750000953674316
3.75
3.8499999046325684
3.924999952316284
3.7750000953674316
3.875
3.7249999046325684
3.549999952316284
3.5250000953674316
3.299999952316284
3.4000000953674316
3.424999952316284
3.5
3.75
3.7750000953674316
3.799999952316284
3.8499999046325684
3.5
3.9000000953674316
3.6500000953674316
3.625
3.700000047683716
3.625
3.549999952316284
3.700000047683716
3.825000047683716
3.950000047683716
4.125
4.074999809265137
4.300000190734863
4.099999904632568
3.950000047683716
3.875
3.75
3.7750000953674316
3.799999952316284
3.674999952316284
3.875
3.75
3.875
4.175000190734863
4.175000190734863
4.099999904632568
3.7249999046325684
3.6500000953674316
3.625
3.5250000953674316
4.150000095367432
4.175000190734863
4.224999904632568
4.025000095367432
3.75
3.825000047683716
3.7750000953674316
3.9000000953674316
4.074999809265137
4.050000190734863
4.25
4.099999904632568
3.799999952316284
3.625
3.674999952316284
3.5
3.625
3.9000000953674316
4.050000190734863
4.175000190734863
4.150000095367432
3.8499999046325684
3.625
3.75
3.825000047683716
3.875
3.8499999046325684
3.5250000953674316
3.450000047683716
3.549999952316284
3.8499999046325684
3.875
4.125
4.0
3.950000047683716
3.924999952316284
3.7750000953674316
3.799999952316284
3.75
3.7249999046325684
3.75
3.700000047683716
3.7750000953674316
3.799999952316284
3.7249999046325684
4.150000095367432
4.349999904632568
4.474999904632568
4.324999809265137
4.400000095367432
4.5
4.625
4.775000095367432
4.449999809265137
4.275000095367432
4.175000190734863
3.825000047683716
3.950000047683716
3.875
4.0
3.950000047683716
3.8499999046325684
3.7249999046325684
3.5999999046325684
3.8499999046325684
4.099999904632568
4.175000190734863
4.175000190734863
4.275000095367432
4.0
4.074999809265137
4.175000190734863
4.199999809265137
4.474999904632568
4.574999809265137
4.525000095367432
4.074999809265137
4.050000190734863
4.0
3.799999952316284
3.825000047683716
4.025000095367432
3.924999952316284
4.224999904632568
4.5
4.324999809265137
4.425000190734863
4.425000190734863
4.400000095367432
4.525000095367432
4.375
4.599999904632568
4.449999809265137
4.074999809265137
3.950000047683716
3.950000047683716
4.074999809265137
4.275000095367432
4.324999809265137
4.099999904632568
4.550000190734863
4.574999809265137
4.199999809265137
4.150000095367432
3.5250000953674316
3.200000047683716
3.4000000953674316
3.799999952316284
3.924999952316284
4.400000095367432
4.349999904632568
4.550000190734863
5.025000095367432
4.875
4.925000190734863
4.625
4.400000095367432
4.324999809265137
4.224999904632568
4.050000190734863
4.099999904632568
4.224999904632568
4.324999809265137
4.300000190734863
4.375
4.099999904632568
4.025000095367432
3.9000000953674316
3.875
3.799999952316284
4.025000095367432
4.0
4.074999809265137
4.125
4.199999809265137
4.324999809265137
4.224999904632568
4.449999809265137
4.599999904632568
4.300000190734863
4.300000190734863
4.150000095367432
4.050000190734863
4.099999904632568
4.074999809265137
4.25
4.050000190734863
4.175000190734863
4.224999904632568
4.199999809265137
4.25
4.125
3.7750000953674316
3.799999952316284
3.950000047683716
4.550000190734863
4.449999809265137
4.275000095367432
4.324999809265137
4.0
4.525000095367432
4.550000190734863
4.775000095367432
4.675000190734863
4.375
4.5
4.150000095367432
3.875
4.0
3.9000000953674316
4.25
4.425000190734863
4.324999809265137
4.400000095367432
4.324999809265137
4.474999904632568
4.349999904632568
4.349999904632568
4.300000190734863
4.125
4.199999809265137
4.125
4.25
4.224999904632568
4.224999904632568
4.175000190734863
4.050000190734863
4.175000190734863
4.474999904632568
4.525000095367432
4.550000190734863
4.675000190734863
4.474999904632568
4.625
4.775000095367432
4.925000190734863
4.875
4.824999809265137
4.849999904632568
4.349999904632568
4.650000095367432
4.599999904632568
4.474999904632568
4.25
4.300000190734863
4.525000095367432
4.599999904632568
4.699999809265137
4.525000095367432
4.300000190734863
4.050000190734863
4.224999904632568
4.175000190734863
4.224999904632568
4.25
4.050000190734863
4.125
4.275000095367432
4.199999809265137
4.324999809265137
4.25
4.25
4.25
4.349999904632568
4.25
4.449999809265137
4.650000095367432
4.474999904632568
4.625
4.474999904632568
4.574999809265137
4.724999904632568
4.824999809265137
4.550000190734863
4.625
4.650000095367432
4.875
4.800000190734863
4.900000095367432
4.599999904632568
4.625
4.775000095367432
4.925000190734863
4.599999904632568
4.699999809265137
4.775000095367432
4.625
4.675000190734863
4.75
4.650000095367432
4.724999904632568
4.75
4.925000190734863
4.925000190734863
4.699999809265137
4.625
4.650000095367432
4.849999904632568
4.675000190734863
4.724999904632568
4.400000095367432
4.074999809265137
4.0
4.025000095367432
4.025000095367432
4.099999904632568
4.324999809265137
4.625
4.550000190734863
4.400000095367432
4.474999904632568
4.349999904632568
4.574999809265137
4.849999904632568
4.699999809265137
4.724999904632568
4.550000190734863
4.650000095367432
4.599999904632568
4.375
4.474999904632568
4.224999904632568
4.349999904632568
4.599999904632568
4.324999809265137
4.275000095367432
4.224999904632568
4.525000095367432
4.724999904632568
4.699999809265137
4.699999809265137
4.675000190734863
5.074999809265137
4.949999809265137
4.800000190734863
4.599999904632568
4.375
4.400000095367432
4.474999904632568
4.449999809265137
4.900000095367432
4.900000095367432
4.974999904632568
4.900000095367432
4.75
4.824999809265137
4.900000095367432
4.824999809265137
4.775000095367432
4.925000190734863
4.974999904632568
4.824999809265137
4.599999904632568
4.699999809265137
4.949999809265137
5.125
4.849999904632568
4.875
4.824999809265137
4.650000095367432
4.675000190734863
4.775000095367432
4.824999809265137
4.925000190734863
4.574999809265137
4.525000095367432
4.474999904632568
4.525000095367432
4.574999809265137
4.900000095367432
4.800000190734863
4.699999809265137
4.699999809265137
4.5
4.375
4.375
4.599999904632568
4.724999904632568
4.849999904632568
4.800000190734863
4.800000190734863
4.824999809265137
4.949999809265137
4.724999904632568
4.775000095367432
4.574999809265137
4.675000190734863
5.074999809265137
5.199999809265137
5.199999809265137
5.175000190734863
5.025000095367432
4.775000095367432
5.0
4.824999809265137
5.175000190734863
5.474999904632568
5.400000095367432
5.300000190734863
5.099999904632568
5.175000190734863
5.125
4.949999809265137
4.925000190734863
4.925000190734863
4.875
4.974999904632568
4.974999904632568
4.875
4.650000095367432
4.699999809265137
4.775000095367432
4.875
4.949999809265137
4.849999904632568
4.775000095367432
4.900000095367432
5.0
5.099999904632568
5.074999809265137
5.175000190734863
4.949999809265137
5.025000095367432
5.375
5.275000095367432
5.175000190734863
5.125
4.849999904632568
5.25
5.349999904632568
5.574999809265137
5.349999904632568
5.349999904632568
4.775000095367432
5.074999809265137
4.925000190734863
5.074999809265137
5.199999809265137
5.199999809265137
5.0
5.099999904632568
5.199999809265137
5.125
5.150000095367432
5.0
5.175000190734863
5.275000095367432
5.349999904632568
5.175000190734863
5.449999809265137
5.199999809265137
5.324999809265137
5.375
5.300000190734863
5.074999809265137
4.949999809265137
4.800000190734863
4.724999904632568
4.699999809265137
5.175000190734863
5.199999809265137
5.300000190734863
5.175000190734863
5.275000095367432
5.300000190734863
5.099999904632568
5.25
5.025000095367432
5.074999809265137
5.150000095367432
5.275000095367432
5.025000095367432
4.849999904632568
4.800000190734863
4.849999904632568
5.224999904632568
5.324999809265137
5.474999904632568
5.224999904632568
5.050000190734863
5.175000190734863
5.324999809265137
4.974999904632568
5.449999809265137
5.324999809265137
5.599999904632568
5.75
5.349999904632568
5.150000095367432
5.25
5.400000095367432
5.300000190734863
5.275000095367432
5.425000190734863
5.25
5.275000095367432
5.275000095367432
5.275000095367432
5.599999904632568
5.349999904632568
5.375
5.425000190734863
5.275000095367432
5.349999904632568
5.275000095367432
5.625
5.724999904632568
5.75
5.650000095367432
5.25
5.050000190734863
5.175000190734863
5.199999809265137
5.125
4.849999904632568
4.675000190734863
4.675000190734863
4.875
4.949999809265137
5.224999904632568
5.150000095367432
5.125
5.074999809265137
4.650000095367432
4.574999809265137
4.900000095367432
5.425000190734863
5.300000190734863
5.400000095367432
5.275000095367432
4.900000095367432
5.074999809265137
5.449999809265137
5.324999809265137
5.550000190734863
5.400000095367432
5.400000095367432
5.199999809265137
5.324999809265137
5.224999904632568
5.199999809265137
5.449999809265137
5.425000190734863
5.400000095367432
5.175000190734863
5.099999904632568
5.0
5.0
5.074999809265137
4.925000190734863
5.150000095367432
5.449999809265137
5.699999809265137
5.550000190734863
5.574999809265137
5.425000190734863
5.675000190734863
5.550000190734863
5.125
5.099999904632568
4.900000095367432
5.300000190734863
5.550000190734863
5.75
5.775000095367432
5.525000095367432
5.375
5.625
5.349999904632568
5.550000190734863
5.425000190734863
5.349999904632568
5.300000190734863
5.150000095367432
5.199999809265137
5.375
5.574999809265137
5.574999809265137
5.675000190734863
5.75
5.349999904632568
5.625
5.300000190734863
5.125
5.224999904632568
5.425000190734863
5.425000190734863
5.5
5.525000095367432
5.574999809265137
5.349999904632568
5.449999809265137
5.324999809265137
5.449999809265137
5.375
5.474999904632568
5.375
5.699999809265137
5.550000190734863
5.699999809265137
5.449999809265137
5.349999904632568
5.449999809265137
5.349999904632568
5.474999904632568
5.074999809265137
5.25
5.599999904632568
5.925000190734863
6.224999904632568
5.949999809265137
5.900000095367432
5.574999809265137
5.400000095367432
5.550000190734863
5.574999809265137
