EpRewMean
0.0024999999441206455
0.032499998807907104
0.032499998807907104
0.042500000447034836
0.012500000186264515
0.02250000089406967
0.0949999988079071
0.042500000447034836
0.09000000357627869
0.2150000035762787
0.17499999701976776
0.23250000178813934
0.15000000596046448
0.057500001043081284
0.11249999701976776
0.27000001072883606
0.20499999821186066
0.24250000715255737
0.3799999952316284
0.20250000059604645
0.11999999731779099
0.35249999165534973
0.3725000023841858
0.3824999928474426
0.46000000834465027
0.28999999165534973
0.39250001311302185
0.22499999403953552
0.29249998927116394
0.41499999165534973
0.42750000953674316
0.41499999165534973
0.39500001072883606
0.3075000047683716
0.5849999785423279
0.4724999964237213
0.2549999952316284
0.4925000071525574
0.6675000190734863
0.4424999952316284
0.4724999964237213
0.3199999928474426
0.45500001311302185
0.4000000059604645
0.5799999833106995
0.6875
0.8174999952316284
0.6924999952316284
0.5049999952316284
0.6700000166893005
0.6150000095367432
0.9850000143051147
0.6625000238418579
0.6924999952316284
0.6100000143051147
0.7074999809265137
0.6675000190734863
0.6324999928474426
0.5575000047683716
0.7450000047683716
0.7850000262260437
0.9150000214576721
1.0824999809265137
0.9350000023841858
0.9624999761581421
1.0575000047683716
0.9474999904632568
1.0924999713897705
1.5425000190734863
1.4774999618530273
2.0924999713897705
2.005000114440918
1.9424999952316284
2.4200000762939453
1.5850000381469727
2.757499933242798
2.7825000286102295
3.365000009536743
3.819999933242798
3.797499895095825
4.452499866485596
4.807499885559082
5.222499847412109
4.769999980926514
5.25
6.210000038146973
6.105000019073486
5.715000152587891
5.809999942779541
5.869999885559082
5.5625
5.84250020980835
5.994999885559082
6.332499980926514
6.599999904632568
6.510000228881836
6.795000076293945
7.357500076293945
6.815000057220459
6.675000190734863
6.934999942779541
6.994999885559082
7.244999885559082
7.362500190734863
7.704999923706055
7.59250020980835
7.542500019073486
7.550000190734863
7.96999979019165
7.610000133514404
7.400000095367432
7.775000095367432
8.395000457763672
8.197500228881836
7.997499942779541
8.287500381469727
7.96999979019165
7.815000057220459
8.1274995803833
8.335000038146973
8.180000305175781
7.885000228881836
8.662500381469727
9.02750015258789
8.762499809265137
8.694999694824219
8.657500267028809
8.744999885559082
8.859999656677246
9.039999961853027
8.987500190734863
8.9975004196167
8.732500076293945
8.702500343322754
8.925000190734863
9.125
9.022500038146973
8.510000228881836
8.640000343322754
9.225000381469727
9.079999923706055
8.457500457763672
7.617499828338623
6.947500228881836
7.065000057220459
7.472499847412109
7.337500095367432
7.724999904632568
8.369999885559082
8.0625
8.172499656677246
8.470000267028809
8.712499618530273
8.852499961853027
8.65250015258789
8.199999809265137
8.234999656677246
8.505000114440918
8.577500343322754
8.522500038146973
8.197500228881836
7.737500190734863
7.462500095367432
8.020000457763672
8.670000076293945
8.90999984741211
8.27750015258789
8.1875
8.477499961853027
9.024999618530273
9.017499923706055
9.077500343322754
9.324999809265137
9.614999771118164
9.449999809265137
9.092499732971191
9.302499771118164
9.257499694824219
9.322500228881836
8.96500015258789
8.885000228881836
9.142499923706055
9.162500381469727
8.987500190734863
9.192500114440918
9.760000228881836
9.699999809265137
9.6899995803833
10.012499809265137
9.960000038146973
9.875
9.612500190734863
9.217499732971191
9.352499961853027
9.792499542236328
9.72249984741211
9.744999885559082
9.364999771118164
9.890000343322754
10.017499923706055
9.617500305175781
9.65999984741211
9.47249984741211
9.550000190734863
9.457500457763672
9.539999961853027
9.720000267028809
10.067500114440918
9.962499618530273
9.892499923706055
9.942500114440918
9.517499923706055
9.15999984741211
9.899999618530273
10.292499542236328
9.949999809265137
9.829999923706055
9.739999771118164
9.470000267028809
9.792499542236328
9.8149995803833
9.862500190734863
9.522500038146973
9.774999618530273
9.6225004196167
9.887499809265137
10.255000114440918
10.234999656677246
10.142499923706055
9.989999771118164
9.827500343322754
9.779999732971191
9.574999809265137
9.787500381469727
10.149999618530273
10.4350004196167
10.505000114440918
10.354999542236328
10.107500076293945
10.175000190734863
9.932499885559082
10.520000457763672
10.447500228881836
10.017499923706055
9.960000038146973
9.8774995803833
10.0
9.984999656677246
10.510000228881836
10.697500228881836
10.819999694824219
10.880000114440918
10.845000267028809
10.557499885559082
10.352499961853027
10.375
9.90250015258789
9.989999771118164
10.15250015258789
10.572500228881836
10.760000228881836
10.779999732971191
10.7524995803833
10.367500305175781
10.22249984741211
10.020000457763672
10.100000381469727
10.0625
10.140000343322754
10.542499542236328
10.994999885559082
11.020000457763672
10.585000038146973
10.729999542236328
10.545000076293945
10.2524995803833
10.212499618530273
10.267499923706055
10.154999732971191
9.979999542236328
9.857500076293945
10.180000305175781
10.3725004196167
10.335000038146973
10.220000267028809
10.092499732971191
10.412500381469727
10.727499961853027
10.920000076293945
10.702500343322754
10.925000190734863
11.042499542236328
10.819999694824219
10.577500343322754
10.667499542236328
11.007499694824219
10.96500015258789
10.3100004196167
10.282500267028809
10.692500114440918
10.942500114440918
10.807499885559082
10.732500076293945
10.632499694824219
10.404999732971191
10.317500114440918
10.1274995803833
10.149999618530273
10.625
10.852499961853027
11.132499694824219
11.132499694824219
11.102499961853027
10.704999923706055
9.987500190734863
9.699999809265137
10.242500305175781
10.407500267028809
10.3125
10.177499771118164
10.322500228881836
10.297499656677246
10.25
9.927499771118164
10.130000114440918
10.569999694824219
10.489999771118164
10.270000457763672
10.375
10.257499694824219
10.412500381469727
10.210000038146973
10.052499771118164
10.170000076293945
10.482500076293945
10.397500038146973
10.005000114440918
9.967499732971191
10.15250015258789
10.244999885559082
10.34000015258789
10.392499923706055
10.412500381469727
10.4350004196167
10.717499732971191
10.604999542236328
10.96500015258789
11.4399995803833
11.470000267028809
11.234999656677246
10.787500381469727
10.9399995803833
10.979999542236328
10.944999694824219
10.795000076293945
10.882499694824219
10.885000228881836
10.6274995803833
10.449999809265137
10.425000190734863
10.699999809265137
10.7524995803833
11.007499694824219
11.067500114440918
10.707500457763672
10.630000114440918
10.602499961853027
10.477499961853027
10.407500267028809
10.507499694824219
10.869999885559082
10.8149995803833
10.569999694824219
10.649999618530273
10.77750015258789
10.922499656677246
11.234999656677246
11.427499771118164
11.392499923706055
11.225000381469727
11.204999923706055
11.4975004196167
11.672499656677246
11.305000305175781
11.164999961853027
11.385000228881836
11.329999923706055
11.22249984741211
11.057499885559082
11.3774995803833
11.142499923706055
10.734999656677246
10.604999542236328
10.515000343322754
10.587499618530273
10.805000305175781
11.069999694824219
11.380000114440918
11.197500228881836
11.112500190734863
11.050000190734863
11.082500457763672
10.787500381469727
10.734999656677246
10.585000038146973
11.022500038146973
11.057499885559082
11.142499923706055
11.012499809265137
11.390000343322754
11.09749984741211
10.829999923706055
10.617500305175781
10.914999961853027
11.082500457763672
10.587499618530273
10.367500305175781
10.375
10.4399995803833
10.460000038146973
10.664999961853027
10.430000305175781
10.84749984741211
10.987500190734863
11.319999694824219
11.2524995803833
11.109999656677246
11.100000381469727
11.087499618530273
11.387499809265137
11.367500305175781
11.177499771118164
11.332500457763672
11.432499885559082
11.367500305175781
10.770000457763672
10.885000228881836
10.8100004196167
10.647500038146973
10.84000015258789
10.765000343322754
10.960000038146973
10.899999618530273
11.352499961853027
11.1899995803833
11.234999656677246
11.21500015258789
11.342499732971191
11.077500343322754
11.307499885559082
11.132499694824219
11.244999885559082
11.267499923706055
11.4375
11.282500267028809
11.3100004196167
11.102499961853027
11.237500190734863
11.172499656677246
11.337499618530273
11.539999961853027
11.552499771118164
11.46500015258789
11.327500343322754
10.96500015258789
11.015000343322754
10.892499923706055
11.265000343322754
11.354999542236328
11.494999885559082
11.09000015258789
11.107500076293945
11.074999809265137
11.442500114440918
11.427499771118164
11.1850004196167
10.987500190734863
11.132499694824219
11.135000228881836
11.050000190734863
10.757499694824219
10.3774995803833
10.135000228881836
10.422499656677246
10.787500381469727
10.717499732971191
10.7524995803833
10.942500114440918
11.477499961853027
11.4975004196167
11.265000343322754
10.862500190734863
10.84000015258789
10.7524995803833
10.869999885559082
10.887499809265137
10.857500076293945
10.887499809265137
11.449999809265137
11.547499656677246
11.0625
11.15999984741211
11.135000228881836
10.96500015258789
11.007499694824219
11.157500267028809
11.104999542236328
11.157500267028809
11.047499656677246
10.702500343322754
10.390000343322754
10.635000228881836
10.692500114440918
10.699999809265137
10.875
11.03499984741211
11.40999984741211
11.327500343322754
11.5024995803833
11.037500381469727
10.9350004196167
10.717499732971191
10.642499923706055
10.824999809265137
11.029999732971191
11.367500305175781
11.587499618530273
11.454999923706055
11.079999923706055
10.987500190734863
10.975000381469727
11.232500076293945
11.577500343322754
11.522500038146973
11.635000228881836
11.422499656677246
11.5649995803833
11.202500343322754
11.032500267028809
10.770000457763672
10.717499732971191
10.739999771118164
10.925000190734863
11.125
11.085000038146973
10.71500015258789
10.787500381469727
10.792499542236328
11.255000114440918
11.045000076293945
10.895000457763672
10.942500114440918
11.045000076293945
11.260000228881836
11.180000305175781
11.262499809265137
11.292499542236328
11.40999984741211
11.6274995803833
11.404999732971191
11.300000190734863
11.082500457763672
11.4375
11.162500381469727
10.957500457763672
11.087499618530273
11.2475004196167
11.109999656677246
11.175000190734863
11.382499694824219
11.517499923706055
11.664999961853027
11.257499694824219
10.925000190734863
11.02750015258789
11.295000076293945
11.657500267028809
11.647500038146973
11.767499923706055
11.892499923706055
11.702500343322754
11.649999618530273
11.050000190734863
11.137499809265137
11.104999542236328
11.40999984741211
11.470000267028809
11.380000114440918
11.029999732971191
11.157500267028809
11.162500381469727
11.09749984741211
11.207500457763672
11.1875
11.34749984741211
11.199999809265137
10.930000305175781
10.970000267028809
11.2524995803833
11.505000114440918
11.604999542236328
11.587499618530273
11.619999885559082
11.574999809265137
11.545000076293945
11.255000114440918
11.239999771118164
11.369999885559082
11.619999885559082
11.537500381469727
11.672499656677246
11.425000190734863
11.412500381469727
11.25
11.25
11.305000305175781
11.207500457763672
11.032500267028809
11.257499694824219
11.567500114440918
11.447500228881836
11.53499984741211
11.345000267028809
11.744999885559082
11.27750015258789
11.079999923706055
10.8149995803833
10.925000190734863
10.642499923706055
10.479999542236328
10.774999618530273
11.1274995803833
11.612500190734863
11.789999961853027
11.307499885559082
11.322500228881836
11.09749984741211
11.335000038146973
11.237500190734863
11.237500190734863
11.237500190734863
11.257499694824219
11.28499984741211
11.352499961853027
11.27750015258789
11.452500343322754
11.107500076293945
10.857500076293945
10.982500076293945
11.505000114440918
11.507499694824219
11.170000076293945
11.052499771118164
11.364999771118164
11.574999809265137
11.647500038146973
11.449999809265137
11.65999984741211
11.539999961853027
11.532500267028809
11.395000457763672
11.319999694824219
11.255000114440918
11.227499961853027
10.885000228881836
11.132499694824219
11.477499961853027
11.539999961853027
11.255000114440918
11.342499732971191
11.604999542236328
11.595000267028809
11.630000114440918
11.632499694824219
11.4399995803833
11.585000038146973
11.542499542236328
11.770000457763672
11.77750015258789
11.4350004196167
11.227499961853027
11.055000305175781
11.0600004196167
11.0
11.022500038146973
11.077500343322754
11.397500038146973
11.274999618530273
11.34749984741211
11.404999732971191
11.557499885559082
11.422499656677246
11.447500228881836
11.457500457763672
11.52750015258789
11.537500381469727
11.475000381469727
11.3149995803833
11.047499656677246
11.147500038146973
11.244999885559082
11.399999618530273
11.489999771118164
11.225000381469727
11.262499809265137
11.392499923706055
11.5024995803833
11.197500228881836
11.520000457763672
11.452500343322754
11.637499809265137
11.555000305175781
11.47249984741211
11.822500228881836
11.717499732971191
11.515000343322754
11.422499656677246
11.297499656677246
11.2524995803833
11.052499771118164
11.267499923706055
11.217499732971191
11.232500076293945
10.914999961853027
10.762499809265137
11.332500457763672
11.382499694824219
11.65999984741211
11.407500267028809
11.505000114440918
11.227499961853027
11.510000228881836
11.494999885559082
11.817500114440918
11.569999694824219
11.362500190734863
11.505000114440918
11.642499923706055
11.547499656677246
11.729999542236328
11.927499771118164
11.842499732971191
11.647500038146973
11.390000343322754
11.167499542236328
11.039999961853027
11.242500305175781
11.494999885559082
11.6875
11.707500457763672
11.645000457763672
11.282500267028809
11.295000076293945
11.302499771118164
11.302499771118164
11.27750015258789
11.145000457763672
11.22249984741211
11.194999694824219
11.395000457763672
11.625
11.762499809265137
11.5649995803833
11.645000457763672
11.585000038146973
11.5649995803833
11.539999961853027
11.40250015258789
11.532500267028809
11.332500457763672
11.5600004196167
11.772500038146973
11.807499885559082
11.885000228881836
11.657500267028809
11.567500114440918
11.279999732971191
11.395000457763672
11.210000038146973
11.4375
11.632499694824219
11.897500038146973
11.609999656677246
11.712499618530273
11.8725004196167
11.699999809265137
11.170000076293945
11.335000038146973
11.109999656677246
11.412500381469727
11.244999885559082
11.112500190734863
10.970000267028809
11.229999542236328
11.232500076293945
11.404999732971191
11.332500457763672
11.390000343322754
11.375
11.380000114440918
11.447500228881836
11.482500076293945
11.40250015258789
11.28499984741211
11.454999923706055
11.390000343322754
11.517499923706055
11.657500267028809
11.755000114440918
11.582500457763672
11.192500114440918
11.09000015258789
11.029999732971191
11.274999618530273
11.067500114440918
10.9399995803833
10.859999656677246
11.22249984741211
11.59749984741211
11.800000190734863
11.577500343322754
11.545000076293945
11.462499618530273
11.595000267028809
11.505000114440918
11.375
11.414999961853027
11.630000114440918
11.720000267028809
11.602499961853027
11.707500457763672
11.720000267028809
11.755000114440918
11.577500343322754
11.3149995803833
11.145000457763672
11.077500343322754
11.1899995803833
11.352499961853027
11.270000457763672
11.367500305175781
11.522500038146973
11.3100004196167
11.699999809265137
11.492500305175781
11.757499694824219
11.592499732971191
11.637499809265137
11.78499984741211
12.007499694824219
11.744999885559082
11.287500381469727
11.350000381469727
11.362500190734863
11.27750015258789
11.229999542236328
11.2475004196167
11.494999885559082
11.487500190734863
11.537500381469727
11.524999618530273
11.6274995803833
11.507499694824219
11.227499961853027
11.297499656677246
11.517499923706055
11.8125
11.8125
11.702500343322754
11.482500076293945
11.345000267028809
11.505000114440918
11.52750015258789
11.547499656677246
11.5024995803833
11.5
11.647500038146973
11.720000267028809
11.770000457763672
11.895000457763672
11.642499923706055
11.427499771118164
11.567500114440918
11.922499656677246
11.5625
11.609999656677246
11.587499618530273
11.694999694824219
11.467499732971191
11.712499618530273
11.8125
11.792499542236328
11.462499618530273
11.537500381469727
11.617500305175781
11.479999542236328
11.475000381469727
11.657500267028809
11.515000343322754
11.592499732971191
11.542499542236328
11.517499923706055
11.5625
11.699999809265137
11.587499618530273
11.625
11.882499694824219
11.827500343322754
11.524999618530273
11.274999618530273
11.335000038146973
11.585000038146973
11.6274995803833
11.492500305175781
11.529999732971191
11.5625
11.739999771118164
11.807499885559082
11.8774995803833
11.845000267028809
11.609999656677246
11.367500305175781
11.5625
11.819999694824219
11.670000076293945
11.734999656677246
11.8125
12.142499923706055
12.197500228881836
11.944999694824219
11.835000038146973
11.680000305175781
12.112500190734863
12.119999885559082
12.0600004196167
11.827500343322754
11.477499961853027
11.359999656677246
11.529999732971191
11.675000190734863
11.587499618530273
11.670000076293945
11.604999542236328
11.760000228881836
11.6875
11.779999732971191
11.600000381469727
11.595000267028809
11.522500038146973
11.8774995803833
11.8774995803833
11.90250015258789
11.712499618530273
11.65250015258789
11.6850004196167
11.737500190734863
11.90250015258789
12.09749984741211
11.582500457763672
11.322500228881836
11.3100004196167
11.392499923706055
11.680000305175781
11.960000038146973
11.827500343322754
11.552499771118164
11.6225004196167
11.65999984741211
11.772500038146973
11.672499656677246
11.572500228881836
11.274999618530273
11.662500381469727
11.850000381469727
11.805000305175781
11.779999732971191
11.739999771118164
11.932499885559082
11.72249984741211
11.654999732971191
11.707500457763672
12.104999542236328
12.057499885559082
11.899999618530273
11.8149995803833
11.757499694824219
11.852499961853027
11.760000228881836
11.819999694824219
11.755000114440918
11.954999923706055
12.0024995803833
12.125
12.072500228881836
11.852499961853027
11.664999961853027
11.657500267028809
11.782500267028809
11.84000015258789
11.75
11.6850004196167
11.454999923706055
11.65250015258789
11.762499809265137
11.944999694824219
11.864999771118164
12.029999732971191
12.03499984741211
11.864999771118164
11.572500228881836
11.457500457763672
11.512499809265137
11.617500305175781
11.694999694824219
11.619999885559082
11.897500038146973
11.664999961853027
11.757499694824219
11.9975004196167
11.987500190734863
11.952500343322754
12.057499885559082
11.869999885559082
11.792499542236328
11.625
11.380000114440918
11.319999694824219
11.725000381469727
11.699999809265137
11.539999961853027
11.477499961853027
11.729999542236328
11.795000076293945
11.907500267028809
11.960000038146973
11.8149995803833
11.84749984741211
11.869999885559082
11.9975004196167
11.800000190734863
11.702500343322754
11.962499618530273
11.84749984741211
11.772500038146973
11.515000343322754
11.739999771118164
11.717499732971191
11.835000038146973
11.84749984741211
12.085000038146973
12.022500038146973
12.125
11.789999961853027
11.802499771118164
11.670000076293945
11.917499542236328
11.8774995803833
11.90250015258789
11.797499656677246
11.630000114440918
11.640000343322754
11.717499732971191
11.6850004196167
11.640000343322754
11.454999923706055
11.552499771118164
11.595000267028809
11.555000305175781
11.72249984741211
11.772500038146973
11.720000267028809
11.710000038146973
12.005000114440918
11.947500228881836
12.0
11.854999542236328
11.742500305175781
11.6274995803833
11.8149995803833
11.899999618530273
11.8125
11.795000076293945
12.055000305175781
12.292499542236328
12.260000228881836
12.114999771118164
11.8100004196167
11.887499809265137
11.5
11.475000381469727
11.4350004196167
11.422499656677246
11.572500228881836
11.6875
11.757499694824219
11.732500076293945
11.774999618530273
12.074999809265137
11.899999618530273
11.487500190734863
11.397500038146973
11.552499771118164
11.78499984741211
11.574999809265137
11.737500190734863
11.637499809265137
11.802499771118164
11.779999732971191
11.704999923706055
11.664999961853027
11.672499656677246
11.529999732971191
11.489999771118164
11.6850004196167
11.577500343322754
11.630000114440918
11.567500114440918
11.8725004196167
12.104999542236328
12.154999732971191
11.977499961853027
11.542499542236328
11.547499656677246
11.567500114440918
11.569999694824219
11.765000343322754
11.970000267028809
11.9975004196167
11.742500305175781
11.5625
11.800000190734863
11.71500015258789
11.882499694824219
11.84749984741211
11.829999923706055
11.8149995803833
11.880000114440918
11.797499656677246
11.572500228881836
11.635000228881836
11.8125
11.987500190734863
12.297499656677246
12.130000114440918
12.012499809265137
11.734999656677246
11.6899995803833
11.505000114440918
11.430000305175781
11.600000381469727
11.632499694824219
11.762499809265137
11.577500343322754
11.619999885559082
11.4975004196167
11.65250015258789
11.979999542236328
11.970000267028809
11.8100004196167
11.65999984741211
11.557499885559082
11.699999809265137
11.782500267028809
11.72249984741211
11.867500305175781
11.675000190734863
11.84749984741211
11.857500076293945
12.082500457763672
11.805000305175781
11.90999984741211
11.992500305175781
12.032500267028809
12.055000305175781
11.97249984741211
11.84000015258789
11.960000038146973
11.682499885559082
11.942500114440918
11.907500267028809
11.982500076293945
11.944999694824219
12.037500381469727
12.102499961853027
12.09749984741211
11.829999923706055
11.8774995803833
11.857500076293945
11.702500343322754
11.574999809265137
11.72249984741211
11.817500114440918
11.895000457763672
11.65250015258789
11.529999732971191
11.487500190734863
11.517499923706055
11.789999961853027
11.807499885559082
11.692500114440918
11.392499923706055
11.260000228881836
11.34000015258789
11.282500267028809
11.380000114440918
11.542499542236328
11.52750015258789
11.579999923706055
11.720000267028809
11.797499656677246
11.654999732971191
11.78499984741211
11.850000381469727
11.739999771118164
11.579999923706055
11.547499656677246
11.604999542236328
11.635000228881836
11.662500381469727
11.677499771118164
11.692500114440918
12.055000305175781
11.742500305175781
11.587499618530273
11.672499656677246
11.97249984741211
11.899999618530273
11.677499771118164
11.5649995803833
11.734999656677246
11.944999694824219
11.960000038146973
12.010000228881836
11.914999961853027
11.789999961853027
11.667499542236328
11.717499732971191
11.704999923706055
11.987500190734863
12.032500267028809
11.9399995803833
11.977499961853027
11.805000305175781
11.7524995803833
11.887499809265137
11.692500114440918
11.579999923706055
11.617500305175781
11.78499984741211
11.72249984741211
11.567500114440918
11.657500267028809
11.805000305175781
11.795000076293945
11.704999923706055
11.710000038146973
11.729999542236328
11.649999618530273
11.702500343322754
11.7475004196167
11.762499809265137
11.632499694824219
11.555000305175781
11.694999694824219
11.524999618530273
11.702500343322754
11.592499732971191
11.852499961853027
11.795000076293945
11.885000228881836
11.885000228881836
11.78499984741211
11.822500228881836
11.867500305175781
12.1850004196167
12.072500228881836
11.982500076293945
11.595000267028809
11.557499885559082
11.387499809265137
11.462499618530273
11.607500076293945
11.5649995803833
11.645000457763672
11.757499694824219
11.737500190734863
11.892499923706055
11.862500190734863
11.822500228881836
11.829999923706055
12.15250015258789
12.092499732971191
11.7475004196167
11.8100004196167
12.02750015258789
12.020000457763672
12.005000114440918
11.885000228881836
12.102499961853027
12.045000076293945
12.069999694824219
11.970000267028809
11.77750015258789
11.539999961853027
11.614999771118164
11.454999923706055
11.694999694824219
12.067500114440918
11.859999656677246
11.77750015258789
11.5600004196167
11.789999961853027
11.789999961853027
11.904999732971191
11.792499542236328
11.967499732971191
11.957500457763672
11.819999694824219
11.7524995803833
12.007499694824219
11.8100004196167
11.897500038146973
11.772500038146973
11.827500343322754
11.6850004196167
11.960000038146973
11.890000343322754
11.832500457763672
11.927499771118164
12.007499694824219
11.800000190734863
11.7524995803833
11.5
11.6225004196167
11.237500190734863
11.032500267028809
11.082500457763672
11.335000038146973
11.487500190734863
11.675000190734863
11.617500305175781
11.612500190734863
11.6225004196167
11.772500038146973
11.802499771118164
11.647500038146973
11.662500381469727
11.7475004196167
11.977499961853027
12.017499923706055
11.78499984741211
11.717499732971191
11.9399995803833
11.912500381469727
11.962499618530273
11.6875
11.930000305175781
11.987500190734863
11.967499732971191
12.102499961853027
11.949999809265137
12.029999732971191
11.805000305175781
11.984999656677246
11.989999771118164
11.8725004196167
11.757499694824219
11.904999732971191
12.045000076293945
12.109999656677246
12.132499694824219
12.300000190734863
12.210000038146973
11.925000190734863
11.807499885559082
12.03499984741211
12.007499694824219
11.827500343322754
11.717499732971191
11.675000190734863
11.682499885559082
11.569999694824219
11.52750015258789
11.602499961853027
11.517499923706055
11.6875
11.854999542236328
11.524999618530273
11.757499694824219
11.84000015258789
11.9975004196167
11.947500228881836
12.244999885559082
12.182499885559082
12.210000038146973
12.057499885559082
11.887499809265137
11.8149995803833
11.949999809265137
11.789999961853027
11.612500190734863
11.592499732971191
11.577500343322754
12.067500114440918
11.954999923706055
11.989999771118164
11.817500114440918
11.675000190734863
11.8125
11.859999656677246
11.837499618530273
11.609999656677246
11.699999809265137
11.869999885559082
11.922499656677246
11.867500305175781
11.904999732971191
11.994999885559082
12.017499923706055
12.175000190734863
12.074999809265137
12.0600004196167
11.904999732971191
12.029999732971191
11.850000381469727
11.975000381469727
11.854999542236328
11.9399995803833
11.742500305175781
11.782500267028809
11.585000038146973
11.619999885559082
11.712499618530273
11.774999618530273
11.572500228881836
11.574999809265137
11.662500381469727
11.630000114440918
11.52750015258789
11.829999923706055
11.842499732971191
11.637499809265137
11.657500267028809
11.577500343322754
11.600000381469727
11.727499961853027
11.867500305175781
11.595000267028809
11.767499923706055
11.885000228881836
11.9975004196167
11.970000267028809
11.982500076293945
11.90250015258789
11.707500457763672
11.8774995803833
11.897500038146973
12.21500015258789
12.154999732971191
12.09000015258789
11.979999542236328
11.975000381469727
11.829999923706055
11.717499732971191
11.737500190734863
12.092499732971191
12.307499885559082
12.197500228881836
11.887499809265137
11.739999771118164
12.074999809265137
12.2524995803833
12.414999961853027
12.357500076293945
12.03499984741211
11.982500076293945
11.829999923706055
11.742500305175781
11.640000343322754
11.897500038146973
11.952500343322754
11.9375
11.97249984741211
11.952500343322754
11.795000076293945
11.802499771118164
11.77750015258789
11.850000381469727
12.140000343322754
12.052499771118164
11.78499984741211
11.617500305175781
11.507499694824219
11.5625
11.912500381469727
12.0600004196167
11.887499809265137
11.90250015258789
11.9975004196167
12.09000015258789
12.0649995803833
11.932499885559082
11.805000305175781
11.6899995803833
11.420000076293945
11.517499923706055
11.717499732971191
11.887499809265137
11.827500343322754
11.720000267028809
11.782500267028809
11.524999618530273
11.335000038146973
11.5649995803833
11.729999542236328
11.922499656677246
11.927499771118164
11.835000038146973
11.9399995803833
11.7524995803833
11.739999771118164
11.859999656677246
11.897500038146973
11.824999809265137
11.835000038146973
12.0024995803833
