EpRewMean
2.448979616165161
4.026845455169678
3.8801262378692627
3.549999952316284
3.8499999046325684
4.400000095367432
4.525000095367432
4.675000190734863
4.625
4.974999904632568
4.625
4.474999904632568
4.800000190734863
5.150000095367432
4.474999904632568
4.550000190734863
4.875
5.025000095367432
5.175000190734863
4.875
4.699999809265137
5.25
4.824999809265137
5.25
4.699999809265137
5.0
4.949999809265137
4.849999904632568
5.425000190734863
5.699999809265137
5.5
5.525000095367432
5.400000095367432
5.300000190734863
5.25
5.650000095367432
5.099999904632568
5.699999809265137
5.400000095367432
5.300000190734863
5.599999904632568
5.275000095367432
5.25
5.175000190734863
5.474999904632568
5.349999904632568
5.275000095367432
5.925000190734863
5.824999809265137
5.599999904632568
5.425000190734863
5.925000190734863
5.425000190734863
6.375
5.925000190734863
5.949999809265137
5.974999904632568
5.75
5.625
6.400000095367432
5.625
5.824999809265137
6.074999809265137
5.75
6.275000095367432
5.849999904632568
5.949999809265137
5.875
5.800000190734863
6.349999904632568
5.699999809265137
6.150000095367432
5.5
6.025000095367432
5.824999809265137
6.175000190734863
5.824999809265137
5.900000095367432
6.275000095367432
6.199999809265137
6.125
6.25
6.574999809265137
6.324999809265137
6.224999904632568
6.349999904632568
6.275000095367432
6.5
6.824999809265137
6.650000095367432
6.625
6.125
6.724999904632568
6.400000095367432
6.349999904632568
6.675000190734863
6.650000095367432
6.800000190734863
6.375
6.900000095367432
6.5
6.800000190734863
6.75
6.599999904632568
6.775000095367432
6.824999809265137
6.824999809265137
6.5
7.025000095367432
7.224999904632568
6.75
6.724999904632568
7.0
6.724999904632568
7.224999904632568
6.925000190734863
7.150000095367432
7.175000190734863
7.175000190734863
7.125
6.824999809265137
7.050000190734863
7.0
6.800000190734863
6.974999904632568
7.525000095367432
6.974999904632568
7.150000095367432
7.400000095367432
7.125
7.099999904632568
7.125
7.574999809265137
7.5
7.5
7.400000095367432
6.974999904632568
7.5
7.099999904632568
6.974999904632568
7.949999809265137
7.699999809265137
7.175000190734863
7.425000190734863
7.099999904632568
7.800000190734863
7.625
7.525000095367432
7.699999809265137
7.625
7.474999904632568
7.150000095367432
7.199999809265137
7.25
7.574999809265137
7.974999904632568
7.699999809265137
7.699999809265137
7.525000095367432
7.650000095367432
7.625
7.775000095367432
7.474999904632568
7.425000190734863
7.574999809265137
7.525000095367432
8.074999809265137
7.400000095367432
7.949999809265137
7.5
7.900000095367432
7.800000190734863
7.75
7.949999809265137
7.824999809265137
7.275000095367432
8.024999618530273
8.050000190734863
8.100000381469727
7.775000095367432
8.024999618530273
8.050000190734863
7.574999809265137
7.449999809265137
7.650000095367432
8.050000190734863
7.949999809265137
8.024999618530273
7.75
7.775000095367432
7.824999809265137
7.824999809265137
8.074999809265137
8.149999618530273
7.824999809265137
7.599999904632568
7.75
8.100000381469727
8.125
8.125
7.775000095367432
8.574999809265137
8.024999618530273
7.974999904632568
7.625
7.974999904632568
8.100000381469727
8.125
8.425000190734863
8.524999618530273
8.475000381469727
8.550000190734863
8.074999809265137
8.100000381469727
8.0
8.475000381469727
8.425000190734863
7.625
8.350000381469727
8.175000190734863
7.824999809265137
8.25
8.399999618530273
8.074999809265137
8.050000190734863
8.074999809265137
8.225000381469727
7.974999904632568
8.125
8.175000190734863
8.199999809265137
8.25
8.425000190734863
8.300000190734863
7.974999904632568
8.399999618530273
8.425000190734863
8.25
8.675000190734863
8.274999618530273
8.600000381469727
8.199999809265137
8.399999618530273
8.175000190734863
8.375
8.649999618530273
8.600000381469727
8.675000190734863
8.300000190734863
8.399999618530273
8.5
8.350000381469727
8.175000190734863
8.324999809265137
8.5
8.100000381469727
8.125
8.425000190734863
8.425000190734863
8.550000190734863
7.925000190734863
8.024999618530273
8.475000381469727
8.125
8.324999809265137
8.25
8.675000190734863
8.524999618530273
8.300000190734863
8.149999618530273
8.324999809265137
8.350000381469727
8.300000190734863
8.274999618530273
8.074999809265137
8.324999809265137
8.149999618530273
8.324999809265137
8.050000190734863
8.399999618530273
8.175000190734863
8.25
8.399999618530273
8.574999809265137
8.175000190734863
8.399999618530273
8.25
8.425000190734863
8.550000190734863
8.024999618530273
8.475000381469727
8.350000381469727
8.449999809265137
8.375
8.5
8.475000381469727
8.100000381469727
8.300000190734863
8.350000381469727
8.399999618530273
8.175000190734863
8.399999618530273
8.600000381469727
8.199999809265137
8.850000381469727
8.425000190734863
8.675000190734863
8.350000381469727
8.5
8.199999809265137
8.175000190734863
8.350000381469727
8.399999618530273
8.125
8.199999809265137
8.524999618530273
8.524999618530273
8.199999809265137
8.350000381469727
8.524999618530273
8.399999618530273
8.274999618530273
8.625
8.449999809265137
8.425000190734863
8.75
8.375
8.175000190734863
8.024999618530273
8.475000381469727
8.324999809265137
8.774999618530273
8.475000381469727
8.25
8.600000381469727
8.449999809265137
8.274999618530273
8.425000190734863
8.449999809265137
8.699999809265137
8.125
8.100000381469727
8.675000190734863
8.449999809265137
8.425000190734863
8.175000190734863
8.850000381469727
8.600000381469727
8.699999809265137
8.274999618530273
8.274999618530273
8.100000381469727
8.425000190734863
8.875
8.399999618530273
8.5
8.324999809265137
8.274999618530273
8.550000190734863
8.550000190734863
8.725000381469727
8.350000381469727
8.475000381469727
8.699999809265137
8.399999618530273
8.824999809265137
8.274999618530273
8.399999618530273
8.475000381469727
8.149999618530273
8.649999618530273
8.175000190734863
8.800000190734863
8.149999618530273
8.149999618530273
8.5
8.524999618530273
8.5
8.375
8.699999809265137
8.225000381469727
8.699999809265137
8.550000190734863
8.524999618530273
8.324999809265137
8.350000381469727
8.5
8.324999809265137
8.5
8.524999618530273
8.425000190734863
8.25
8.475000381469727
8.475000381469727
8.25
8.449999809265137
8.300000190734863
8.350000381469727
8.25
8.375
8.425000190734863
8.449999809265137
8.149999618530273
8.425000190734863
8.675000190734863
8.475000381469727
8.475000381469727
8.600000381469727
8.399999618530273
8.625
8.5
8.550000190734863
8.5
8.649999618530273
8.600000381469727
8.5
8.5
8.725000381469727
8.399999618530273
8.574999809265137
8.725000381469727
8.75
8.399999618530273
8.5
8.25
8.5
8.425000190734863
8.550000190734863
8.800000190734863
8.550000190734863
8.574999809265137
8.350000381469727
8.425000190734863
8.800000190734863
8.324999809265137
8.675000190734863
8.449999809265137
8.425000190734863
8.225000381469727
8.449999809265137
8.475000381469727
8.399999618530273
8.5
8.5
8.475000381469727
8.5
8.425000190734863
8.350000381469727
8.449999809265137
8.399999618530273
8.550000190734863
8.324999809265137
8.5
8.524999618530273
8.475000381469727
8.149999618530273
8.399999618530273
8.675000190734863
8.600000381469727
8.25
8.350000381469727
8.375
8.975000381469727
8.475000381469727
8.550000190734863
8.574999809265137
8.5
8.949999809265137
8.449999809265137
8.524999618530273
8.5
8.475000381469727
8.300000190734863
8.350000381469727
8.574999809265137
8.524999618530273
8.375
8.725000381469727
8.274999618530273
8.324999809265137
8.600000381469727
8.274999618530273
8.175000190734863
8.25
8.800000190734863
8.774999618530273
8.774999618530273
8.699999809265137
8.574999809265137
8.425000190734863
8.699999809265137
8.550000190734863
8.475000381469727
8.475000381469727
8.5
8.175000190734863
8.625
8.175000190734863
8.725000381469727
8.574999809265137
8.75
8.125
8.274999618530273
8.800000190734863
8.100000381469727
8.024999618530273
8.399999618530273
8.324999809265137
8.100000381469727
8.199999809265137
8.449999809265137
8.324999809265137
8.274999618530273
8.399999618530273
8.300000190734863
8.699999809265137
8.574999809265137
8.399999618530273
8.350000381469727
8.324999809265137
8.800000190734863
8.274999618530273
8.350000381469727
8.699999809265137
8.375
8.375
8.300000190734863
8.800000190734863
8.324999809265137
8.625
8.399999618530273
7.875
8.649999618530273
8.425000190734863
8.75
8.300000190734863
8.25
8.449999809265137
8.350000381469727
8.600000381469727
8.449999809265137
8.375
8.524999618530273
8.600000381469727
8.649999618530273
8.574999809265137
8.550000190734863
8.0
8.550000190734863
8.600000381469727
8.550000190734863
8.675000190734863
8.274999618530273
8.649999618530273
8.324999809265137
8.475000381469727
8.324999809265137
8.574999809265137
8.5
8.625
8.300000190734863
8.225000381469727
8.199999809265137
8.25
8.550000190734863
8.175000190734863
8.399999618530273
8.399999618530273
8.5
8.149999618530273
8.375
8.375
8.399999618530273
8.449999809265137
8.600000381469727
8.324999809265137
8.524999618530273
8.149999618530273
8.600000381469727
8.600000381469727
8.199999809265137
8.800000190734863
8.199999809265137
8.149999618530273
8.524999618530273
8.375
8.449999809265137
8.274999618530273
8.725000381469727
8.574999809265137
8.324999809265137
8.274999618530273
8.399999618530273
8.199999809265137
8.324999809265137
8.25
7.974999904632568
8.649999618530273
8.475000381469727
8.675000190734863
8.524999618530273
8.100000381469727
8.675000190734863
8.25
8.375
8.25
8.574999809265137
8.699999809265137
8.100000381469727
8.149999618530273
9.0
8.399999618530273
8.649999618530273
8.399999618530273
8.300000190734863
8.300000190734863
8.675000190734863
8.625
8.550000190734863
8.25
8.600000381469727
8.600000381469727
8.449999809265137
8.550000190734863
8.399999618530273
8.425000190734863
8.524999618530273
8.649999618530273
8.699999809265137
8.5
8.600000381469727
8.800000190734863
8.675000190734863
8.649999618530273
8.524999618530273
8.899999618530273
8.324999809265137
8.625
8.824999809265137
8.850000381469727
8.425000190734863
8.774999618530273
8.824999809265137
8.699999809265137
8.475000381469727
8.324999809265137
8.449999809265137
8.699999809265137
8.725000381469727
8.475000381469727
8.425000190734863
8.425000190734863
8.625
8.550000190734863
8.375
8.425000190734863
8.875
8.425000190734863
8.324999809265137
8.600000381469727
8.675000190734863
8.300000190734863
8.774999618530273
8.625
8.625
8.725000381469727
8.774999618530273
8.475000381469727
8.675000190734863
8.774999618530273
8.649999618530273
8.574999809265137
8.600000381469727
8.550000190734863
8.524999618530273
9.0
8.875
9.149999618530273
8.600000381469727
8.274999618530273
8.824999809265137
8.774999618530273
8.800000190734863
8.699999809265137
8.649999618530273
8.574999809265137
8.774999618530273
8.800000190734863
8.800000190734863
8.899999618530273
8.425000190734863
8.774999618530273
8.800000190734863
8.649999618530273
8.574999809265137
8.550000190734863
8.899999618530273
9.0
8.925000190734863
8.649999618530273
8.600000381469727
8.949999809265137
8.850000381469727
9.100000381469727
9.074999809265137
8.824999809265137
8.800000190734863
8.850000381469727
8.800000190734863
8.675000190734863
8.600000381469727
8.824999809265137
8.625
8.699999809265137
8.649999618530273
8.850000381469727
8.774999618530273
8.425000190734863
8.800000190734863
8.925000190734863
8.725000381469727
8.725000381469727
8.425000190734863
8.449999809265137
8.300000190734863
8.75
8.574999809265137
9.0
9.199999809265137
8.850000381469727
8.399999618530273
8.649999618530273
8.875
8.5
8.824999809265137
8.725000381469727
8.925000190734863
8.75
8.649999618530273
8.774999618530273
8.824999809265137
8.550000190734863
8.675000190734863
8.925000190734863
8.649999618530273
8.774999618530273
8.675000190734863
8.5
8.699999809265137
8.574999809265137
8.975000381469727
8.975000381469727
8.949999809265137
8.75
8.699999809265137
8.824999809265137
9.125
8.75
8.75
8.925000190734863
8.800000190734863
8.524999618530273
8.899999618530273
8.675000190734863
8.850000381469727
8.774999618530273
8.899999618530273
9.25
9.0
8.425000190734863
8.800000190734863
8.625
8.699999809265137
8.675000190734863
8.625
8.774999618530273
8.725000381469727
8.600000381469727
8.949999809265137
8.699999809265137
8.850000381469727
9.100000381469727
8.925000190734863
8.875
8.875
8.925000190734863
8.774999618530273
8.899999618530273
8.550000190734863
8.899999618530273
8.675000190734863
8.475000381469727
9.0
8.899999618530273
8.925000190734863
8.925000190734863
9.0
8.75
8.899999618530273
8.824999809265137
9.050000190734863
8.925000190734863
8.774999618530273
8.649999618530273
9.0
8.824999809265137
8.699999809265137
8.975000381469727
8.524999618530273
8.524999618530273
9.125
8.774999618530273
8.949999809265137
8.774999618530273
9.199999809265137
8.699999809265137
8.75
9.0
8.899999618530273
8.850000381469727
8.725000381469727
8.625
8.925000190734863
9.024999618530273
8.975000381469727
8.75
8.824999809265137
9.149999618530273
8.725000381469727
8.625
8.524999618530273
8.949999809265137
8.725000381469727
8.75
8.574999809265137
8.875
9.050000190734863
8.975000381469727
8.875
8.625
8.800000190734863
8.600000381469727
9.024999618530273
8.75
8.899999618530273
8.699999809265137
8.550000190734863
8.949999809265137
9.175000190734863
8.649999618530273
8.824999809265137
8.649999618530273
8.899999618530273
8.774999618530273
8.675000190734863
8.649999618530273
8.850000381469727
8.850000381469727
8.875
8.875
8.625
8.725000381469727
8.850000381469727
8.800000190734863
8.774999618530273
8.975000381469727
8.625
8.949999809265137
8.774999618530273
8.850000381469727
9.125
8.875
8.725000381469727
8.949999809265137
8.850000381469727
8.850000381469727
8.824999809265137
8.975000381469727
8.925000190734863
8.774999618530273
8.975000381469727
8.899999618530273
9.0
8.899999618530273
8.75
9.024999618530273
8.925000190734863
8.699999809265137
8.875
8.824999809265137
8.949999809265137
8.899999618530273
9.175000190734863
8.824999809265137
8.75
9.074999809265137
8.699999809265137
8.824999809265137
8.824999809265137
8.725000381469727
8.875
8.824999809265137
9.024999618530273
8.625
9.300000190734863
8.824999809265137
8.725000381469727
9.149999618530273
8.899999618530273
8.975000381469727
8.850000381469727
9.050000190734863
9.100000381469727
8.975000381469727
8.524999618530273
9.024999618530273
9.199999809265137
8.725000381469727
8.800000190734863
8.699999809265137
8.975000381469727
8.800000190734863
8.875
8.925000190734863
8.975000381469727
9.074999809265137
8.975000381469727
9.100000381469727
8.899999618530273
9.074999809265137
8.800000190734863
9.050000190734863
9.225000381469727
8.875
9.074999809265137
9.100000381469727
9.074999809265137
8.925000190734863
9.175000190734863
8.75
9.050000190734863
9.0
9.100000381469727
8.699999809265137
9.225000381469727
9.274999618530273
8.850000381469727
8.899999618530273
8.975000381469727
9.125
9.225000381469727
9.225000381469727
9.199999809265137
9.074999809265137
8.949999809265137
9.175000190734863
9.274999618530273
9.0
9.074999809265137
8.850000381469727
8.949999809265137
9.125
8.824999809265137
9.050000190734863
9.074999809265137
8.975000381469727
9.199999809265137
9.024999618530273
9.0
9.100000381469727
9.324999809265137
9.074999809265137
9.024999618530273
8.725000381469727
9.0
9.074999809265137
9.149999618530273
9.199999809265137
9.225000381469727
9.175000190734863
9.050000190734863
9.024999618530273
9.125
9.0
8.975000381469727
9.175000190734863
9.074999809265137
9.050000190734863
8.774999618530273
8.800000190734863
9.024999618530273
9.149999618530273
8.949999809265137
8.949999809265137
9.100000381469727
9.0
8.975000381469727
9.149999618530273
9.125
9.175000190734863
9.175000190734863
8.774999618530273
8.600000381469727
9.050000190734863
9.125
9.125
9.100000381469727
8.899999618530273
8.949999809265137
8.925000190734863
9.050000190734863
9.0
8.925000190734863
8.875
8.975000381469727
9.175000190734863
8.875
9.199999809265137
8.824999809265137
9.175000190734863
9.149999618530273
9.050000190734863
8.975000381469727
8.949999809265137
9.149999618530273
9.100000381469727
9.125
8.875
9.274999618530273
8.949999809265137
9.0
9.050000190734863
9.149999618530273
9.149999618530273
9.199999809265137
8.824999809265137
9.024999618530273
9.100000381469727
9.125
8.725000381469727
8.875
9.024999618530273
9.0
9.024999618530273
8.925000190734863
9.274999618530273
8.824999809265137
9.074999809265137
9.050000190734863
9.100000381469727
9.225000381469727
9.024999618530273
8.850000381469727
9.0
9.050000190734863
9.050000190734863
8.824999809265137
9.125
8.925000190734863
9.175000190734863
8.975000381469727
8.899999618530273
9.199999809265137
8.850000381469727
8.824999809265137
8.850000381469727
9.0
9.175000190734863
8.850000381469727
8.800000190734863
9.125
8.899999618530273
8.925000190734863
8.975000381469727
8.774999618530273
9.024999618530273
8.925000190734863
8.975000381469727
9.25
9.050000190734863
9.050000190734863
9.125
9.024999618530273
9.024999618530273
8.925000190734863
9.074999809265137
9.300000190734863
9.100000381469727
9.125
9.074999809265137
9.149999618530273
9.0
9.149999618530273
9.0
9.225000381469727
9.125
9.0
9.074999809265137
9.300000190734863
8.975000381469727
8.925000190734863
8.949999809265137
9.100000381469727
9.100000381469727
8.899999618530273
8.899999618530273
9.100000381469727
8.949999809265137
8.774999618530273
8.774999618530273
9.0
8.75
8.925000190734863
9.024999618530273
8.975000381469727
8.925000190734863
8.824999809265137
9.024999618530273
9.199999809265137
8.824999809265137
8.949999809265137
8.824999809265137
9.125
9.274999618530273
8.824999809265137
8.800000190734863
9.125
9.350000381469727
9.050000190734863
9.125
9.125
9.225000381469727
9.175000190734863
8.949999809265137
9.050000190734863
9.300000190734863
8.850000381469727
8.774999618530273
9.100000381469727
8.925000190734863
8.899999618530273
8.925000190734863
8.899999618530273
9.175000190734863
9.125
9.225000381469727
9.125
8.824999809265137
9.225000381469727
9.074999809265137
9.100000381469727
9.024999618530273
9.024999618530273
9.225000381469727
9.0
8.925000190734863
9.125
9.100000381469727
8.975000381469727
9.149999618530273
9.175000190734863
8.800000190734863
8.800000190734863
9.100000381469727
8.925000190734863
9.149999618530273
8.949999809265137
9.0
9.100000381469727
9.175000190734863
9.074999809265137
8.949999809265137
9.050000190734863
8.899999618530273
8.850000381469727
9.050000190734863
9.0
9.050000190734863
8.800000190734863
8.925000190734863
8.949999809265137
9.074999809265137
9.074999809265137
8.875
8.975000381469727
8.824999809265137
9.024999618530273
9.199999809265137
9.125
8.800000190734863
9.149999618530273
9.050000190734863
9.0
9.0
9.0
9.100000381469727
9.175000190734863
9.149999618530273
9.050000190734863
8.975000381469727
9.25
9.199999809265137
8.875
9.024999618530273
9.050000190734863
8.975000381469727
9.199999809265137
9.225000381469727
9.300000190734863
9.100000381469727
8.899999618530273
9.449999809265137
9.25
9.100000381469727
9.100000381469727
9.199999809265137
9.175000190734863
9.024999618530273
9.175000190734863
9.074999809265137
8.899999618530273
9.050000190734863
8.949999809265137
9.125
9.050000190734863
8.925000190734863
9.125
9.050000190734863
8.725000381469727
8.975000381469727
9.050000190734863
9.125
9.100000381469727
9.024999618530273
8.949999809265137
9.050000190734863
8.850000381469727
9.149999618530273
9.0
8.824999809265137
9.149999618530273
9.149999618530273
9.0
9.199999809265137
8.850000381469727
9.25
9.074999809265137
9.175000190734863
8.875
9.274999618530273
9.050000190734863
8.975000381469727
9.274999618530273
9.125
9.125
9.300000190734863
9.300000190734863
9.25
9.274999618530273
9.0
9.350000381469727
9.149999618530273
9.100000381469727
9.100000381469727
9.100000381469727
9.324999809265137
9.149999618530273
9.25
9.149999618530273
9.399999618530273
9.024999618530273
9.0
9.225000381469727
9.300000190734863
9.274999618530273
8.975000381469727
9.125
9.125
9.074999809265137
9.25
9.0
9.199999809265137
9.024999618530273
9.300000190734863
9.350000381469727
9.324999809265137
9.149999618530273
9.149999618530273
9.375
9.25
9.050000190734863
9.074999809265137
9.149999618530273
9.300000190734863
9.100000381469727
9.100000381469727
9.25
9.225000381469727
9.024999618530273
9.125
9.024999618530273
9.149999618530273
8.899999618530273
9.125
9.225000381469727
9.074999809265137
9.300000190734863
9.100000381469727
9.324999809265137
9.225000381469727
9.175000190734863
9.175000190734863
9.449999809265137
9.149999618530273
9.050000190734863
9.100000381469727
9.350000381469727
9.324999809265137
9.024999618530273
9.550000190734863
9.274999618530273
8.949999809265137
8.899999618530273
9.25
9.050000190734863
8.949999809265137
8.975000381469727
9.300000190734863
9.225000381469727
9.175000190734863
9.125
9.274999618530273
9.475000381469727
8.925000190734863
9.199999809265137
9.350000381469727
8.850000381469727
9.25
9.0
9.324999809265137
8.975000381469727
8.875
9.300000190734863
9.074999809265137
9.350000381469727
8.824999809265137
9.25
8.975000381469727
9.300000190734863
9.324999809265137
9.125
8.949999809265137
9.274999618530273
9.100000381469727
8.925000190734863
9.149999618530273
9.074999809265137
9.274999618530273
9.324999809265137
9.225000381469727
9.449999809265137
9.100000381469727
9.25
9.225000381469727
9.300000190734863
9.350000381469727
9.100000381469727
9.175000190734863
9.225000381469727
9.125
9.375
9.324999809265137
9.149999618530273
9.050000190734863
9.274999618530273
9.300000190734863
9.225000381469727
9.175000190734863
9.199999809265137
9.149999618530273
9.300000190734863
9.225000381469727
9.25
9.225000381469727
9.199999809265137
8.949999809265137
9.125
9.074999809265137
9.125
9.024999618530273
9.25
9.074999809265137
9.199999809265137
9.225000381469727
9.274999618530273
9.149999618530273
9.449999809265137
8.899999618530273
9.274999618530273
9.25
9.225000381469727
9.050000190734863
8.925000190734863
9.100000381469727
9.399999618530273
9.350000381469727
9.25
9.225000381469727
9.100000381469727
9.175000190734863
9.125
9.100000381469727
9.524999618530273
9.149999618530273
9.199999809265137
9.449999809265137
9.225000381469727
9.425000190734863
9.25
9.399999618530273
9.324999809265137
9.375
9.100000381469727
9.25
9.399999618530273
9.350000381469727
9.0
9.350000381469727
9.350000381469727
9.350000381469727
9.324999809265137
9.100000381469727
9.225000381469727
9.149999618530273
9.324999809265137
9.324999809265137
9.324999809265137
9.125
9.225000381469727
9.274999618530273
9.074999809265137
9.25
9.274999618530273
8.925000190734863
9.225000381469727
9.024999618530273
9.074999809265137
9.324999809265137
9.074999809265137
9.149999618530273
9.175000190734863
9.199999809265137
9.300000190734863
9.074999809265137
9.100000381469727
9.074999809265137
9.300000190734863
9.225000381469727
9.175000190734863
9.274999618530273
9.225000381469727
9.274999618530273
9.149999618530273
9.024999618530273
9.274999618530273
9.399999618530273
9.375
9.25
9.199999809265137
9.225000381469727
9.375
9.274999618530273
9.149999618530273
9.225000381469727
9.324999809265137
8.850000381469727
9.175000190734863
9.300000190734863
9.175000190734863
9.324999809265137
9.0
9.274999618530273
9.074999809265137
9.25
9.149999618530273
8.949999809265137
9.175000190734863
9.399999618530273
8.975000381469727
9.225000381469727
9.074999809265137
9.149999618530273
9.300000190734863
9.074999809265137
9.074999809265137
9.25
9.100000381469727
9.350000381469727
9.100000381469727
9.024999618530273
9.175000190734863
9.324999809265137
9.125
9.324999809265137
9.050000190734863
9.175000190734863
9.074999809265137
9.125
9.449999809265137
9.199999809265137
9.350000381469727
9.199999809265137
9.125
9.024999618530273
9.0
9.100000381469727
9.024999618530273
9.300000190734863
9.300000190734863
8.875
9.25
9.074999809265137
9.350000381469727
9.300000190734863
9.125
9.425000190734863
