EpRewMean
1.0
2.5
2.75
3.2249999046325684
3.180000066757202
3.3125
3.327500104904175
3.3450000286102295
3.4600000381469727
3.302500009536743
3.240000009536743
3.132499933242798
2.9749999046325684
3.077500104904175
3.3399999141693115
3.2274999618530273
3.132499933242798
3.384999990463257
3.242500066757202
3.0824999809265137
3.059999942779541
2.822499990463257
2.992500066757202
3.1050000190734863
3.177500009536743
3.172499895095825
2.9800000190734863
2.9600000381469727
3.055000066757202
3.077500104904175
3.127500057220459
3.1050000190734863
2.9375
2.884999990463257
3.0174999237060547
3.262500047683716
3.3499999046325684
3.2925000190734863
3.197499990463257
2.942500114440918
2.932499885559082
2.8975000381469727
2.930000066757202
3.1024999618530273
3.0924999713897705
2.952500104904175
2.9549999237060547
2.9024999141693115
3.0924999713897705
3.130000114440918
3.3475000858306885
3.4149999618530273
3.307499885559082
3.1600000858306885
3.132499933242798
3.174999952316284
3.3524999618530273
3.3424999713897705
3.4000000953674316
3.440000057220459
3.694999933242798
3.5799999237060547
3.3575000762939453
3.2874999046325684
3.4200000762939453
3.3524999618530273
3.367500066757202
3.577500104904175
3.827500104904175
3.8499999046325684
3.7225000858306885
3.740000009536743
3.867500066757202
3.674999952316284
3.872499942779541
3.9075000286102295
3.807499885559082
3.9700000286102295
4.09499979019165
3.9649999141693115
3.757499933242798
3.9574999809265137
3.9700000286102295
4.050000190734863
3.9649999141693115
4.210000038146973
4.127500057220459
3.8575000762939453
3.797499895095825
4.042500019073486
4.03000020980835
3.947499990463257
4.175000190734863
4.132500171661377
3.927500009536743
4.074999809265137
4.167500019073486
4.112500190734863
4.340000152587891
4.175000190734863
4.054999828338623
4.0625
4.077499866485596
4.202499866485596
4.210000038146973
4.172500133514404
4.275000095367432
4.159999847412109
4.204999923706055
4.287499904632568
4.287499904632568
4.130000114440918
4.28249979019165
4.255000114440918
4.147500038146973
4.212500095367432
4.050000190734863
4.034999847412109
4.215000152587891
4.179999828338623
4.207499980926514
4.074999809265137
4.107500076293945
3.8924999237060547
3.890000104904175
4.007500171661377
4.110000133514404
4.257500171661377
4.244999885559082
3.9825000762939453
3.9600000381469727
4.097499847412109
4.105000019073486
3.9800000190734863
4.034999847412109
4.117499828338623
4.002500057220459
3.9100000858306885
3.944999933242798
4.302499771118164
4.247499942779541
4.307499885559082
4.417500019073486
4.257500171661377
4.1875
4.122499942779541
4.400000095367432
4.302499771118164
4.267499923706055
4.335000038146973
4.392499923706055
4.292500019073486
4.199999809265137
4.442500114440918
4.335000038146973
4.507500171661377
4.707499980926514
4.332499980926514
4.179999828338623
4.244999885559082
4.065000057220459
4.034999847412109
4.309999942779541
4.587500095367432
4.552499771118164
4.547500133514404
4.457499980926514
4.534999847412109
4.619999885559082
4.364999771118164
4.387499809265137
4.460000038146973
4.4375
4.239999771118164
4.182499885559082
4.527500152587891
4.485000133514404
4.099999904632568
4.212500095367432
4.457499980926514
4.394999980926514
4.197500228881836
4.309999942779541
4.59250020980835
4.742499828338623
4.644999980926514
4.367499828338623
4.605000019073486
4.590000152587891
4.497499942779541
4.570000171661377
4.40749979019165
4.587500095367432
4.565000057220459
4.510000228881836
4.440000057220459
4.502500057220459
4.545000076293945
4.739999771118164
4.71999979019165
4.735000133514404
4.84499979019165
4.974999904632568
4.732500076293945
4.784999847412109
4.927499771118164
4.804999828338623
4.630000114440918
4.78249979019165
5.232500076293945
4.965000152587891
5.074999809265137
5.125
5.002500057220459
4.702499866485596
4.760000228881836
4.71999979019165
4.772500038146973
4.892499923706055
4.875
4.8125
4.722499847412109
4.875
5.105000019073486
5.215000152587891
5.005000114440918
4.667500019073486
4.8125
4.872499942779541
5.03249979019165
4.942500114440918
5.067500114440918
4.980000019073486
4.775000095367432
4.877500057220459
5.3125
5.610000133514404
5.382500171661377
5.447500228881836
5.309999942779541
5.247499942779541
5.534999847412109
5.53249979019165
5.452499866485596
5.322500228881836
5.224999904632568
5.427499771118164
5.244999885559082
5.369999885559082
5.394999980926514
5.677499771118164
5.625
5.429999828338623
5.642499923706055
5.46999979019165
5.824999809265137
5.375
5.239999771118164
5.465000152587891
5.420000076293945
5.517499923706055
5.824999809265137
5.840000152587891
6.34499979019165
6.337500095367432
6.190000057220459
5.974999904632568
6.224999904632568
6.3125
6.122499942779541
6.192500114440918
6.827499866485596
7.137499809265137
6.875
6.690000057220459
6.78000020980835
7.170000076293945
7.527500152587891
7.599999904632568
8.140000343322754
8.1850004196167
8.239999771118164
8.420000076293945
8.507499694824219
8.887499809265137
8.710000038146973
9.100000381469727
9.5649995803833
10.147500038146973
10.09000015258789
9.882499694824219
9.572500228881836
9.609999656677246
10.050000190734863
10.2475004196167
10.3149995803833
10.319999694824219
10.265000343322754
10.220000267028809
10.072500228881836
10.032500267028809
10.15250015258789
10.322500228881836
11.0600004196167
11.207500457763672
11.779999732971191
11.845000267028809
11.757499694824219
11.577500343322754
11.020000457763672
10.587499618530273
10.487500190734863
10.425000190734863
11.942500114440918
12.302499771118164
12.882499694824219
12.779999732971191
12.842499732971191
12.380000114440918
12.574999809265137
11.772500038146973
11.97249984741211
11.875
12.100000381469727
12.022500038146973
12.710000038146973
12.632499694824219
12.607500076293945
12.5600004196167
12.4975004196167
12.515000343322754
12.7475004196167
12.587499618530273
13.03499984741211
13.192500114440918
13.082500457763672
12.545000076293945
11.670000076293945
12.270000457763672
11.835000038146973
12.930000305175781
12.632499694824219
12.414999961853027
12.517499923706055
12.862500190734863
13.3125
13.332500457763672
13.270000457763672
13.229999542236328
13.135000228881836
12.96500015258789
13.547499656677246
13.4975004196167
13.925000190734863
14.154999732971191
13.947500228881836
13.692500114440918
13.989999771118164
13.737500190734863
13.462499618530273
13.675000190734863
13.587499618530273
13.800000190734863
13.725000381469727
13.34749984741211
12.5625
12.3125
12.47249984741211
12.272500038146973
11.984999656677246
12.505000114440918
13.029999732971191
14.119999885559082
13.647500038146973
13.734999656677246
12.789999961853027
12.912500381469727
12.442500114440918
12.4350004196167
13.194999694824219
13.232500076293945
13.34749984741211
13.032500267028809
12.694999694824219
12.75
12.694999694824219
13.227499961853027
13.1899995803833
13.817500114440918
14.202500343322754
13.242500305175781
13.137499809265137
13.307499885559082
13.109999656677246
13.852499961853027
14.4975004196167
14.02750015258789
14.142499923706055
14.505000114440918
13.852499961853027
13.704999923706055
13.555000305175781
13.614999771118164
13.944999694824219
13.890000343322754
14.5625
14.4399995803833
14.545000076293945
14.712499618530273
14.46500015258789
13.587499618530273
13.412500381469727
13.255000114440918
13.329999923706055
13.65250015258789
14.817500114440918
15.417499542236328
15.382499694824219
14.992500305175781
14.739999771118164
14.15250015258789
14.375
14.452500343322754
14.382499694824219
14.692500114440918
14.432499885559082
14.475000381469727
15.112500190734863
14.992500305175781
15.4399995803833
15.632499694824219
15.795000076293945
15.342499732971191
15.40999984741211
15.322500228881836
15.364999771118164
15.8100004196167
14.987500190734863
15.042499542236328
15.125
14.699999809265137
15.204999923706055
15.274999618530273
15.307499885559082
15.352499961853027
15.02750015258789
15.234999656677246
14.854999542236328
14.662500381469727
14.390000343322754
14.077500343322754
14.010000228881836
14.34000015258789
14.609999656677246
14.890000343322754
14.6875
14.617500305175781
14.305000305175781
14.295000076293945
14.512499809265137
14.567500114440918
14.322500228881836
14.647500038146973
15.15999984741211
15.642499923706055
16.100000381469727
15.697500228881836
14.947500228881836
15.047499656677246
14.742500305175781
14.654999732971191
14.649999618530273
14.53499984741211
14.1274995803833
15.069999694824219
15.637499809265137
15.475000381469727
15.444999694824219
14.65250015258789
14.707500457763672
14.604999542236328
14.817500114440918
15.649999618530273
15.380000114440918
15.414999961853027
15.537500381469727
15.342499732971191
15.364999771118164
14.944999694824219
14.380000114440918
14.260000228881836
14.520000457763672
14.857500076293945
15.630000114440918
16.25
16.5
16.8700008392334
15.827500343322754
15.630000114440918
15.630000114440918
15.557499885559082
15.817500114440918
15.805000305175781
15.727499961853027
15.274999618530273
14.9399995803833
14.607500076293945
14.385000228881836
14.680000305175781
14.932499885559082
14.0625
14.327500343322754
14.819999694824219
14.550000190734863
14.21500015258789
14.737500190734863
15.607500076293945
15.470000267028809
16.09000015258789
15.604999542236328
14.864999771118164
14.452500343322754
14.762499809265137
15.02750015258789
15.2524995803833
15.522500038146973
15.112500190734863
15.0024995803833
14.917499542236328
15.487500190734863
15.587499618530273
15.824999809265137
15.40250015258789
15.042499542236328
14.912500381469727
14.8725004196167
14.90250015258789
15.164999961853027
15.204999923706055
15.204999923706055
15.1850004196167
15.010000228881836
15.1850004196167
15.6225004196167
15.707500457763672
15.875
15.095000267028809
14.619999885559082
15.22249984741211
15.337499618530273
15.657500267028809
15.390000343322754
14.97249984741211
14.682499885559082
14.7475004196167
14.494999885559082
15.042499542236328
15.352499961853027
14.822500228881836
15.3125
15.352499961853027
15.574999809265137
15.449999809265137
15.577500343322754
15.8125
15.489999771118164
15.78499984741211
14.65250015258789
14.947500228881836
14.737500190734863
15.067500114440918
14.967499732971191
14.795000076293945
15.125
15.542499542236328
15.52750015258789
15.182499885559082
14.824999809265137
14.819999694824219
15.042499542236328
15.107500076293945
15.182499885559082
15.912500381469727
15.692500114440918
15.327500343322754
15.079999923706055
15.172499656677246
15.15999984741211
15.817500114440918
15.569999694824219
14.827500343322754
15.03499984741211
14.800000190734863
14.779999732971191
15.239999771118164
14.529999732971191
14.890000343322754
15.414999961853027
15.65999984741211
15.59000015258789
15.479999542236328
15.477499961853027
15.287500381469727
16.012500762939453
15.704999923706055
16.059999465942383
16.09000015258789
15.182499885559082
15.4975004196167
15.28499984741211
14.960000038146973
15.072500228881836
15.992500305175781
16.09000015258789
16.30500030517578
16.780000686645508
16.079999923706055
15.449999809265137
14.954999923706055
15.382499694824219
15.395000457763672
15.352499961853027
15.672499656677246
14.952500343322754
15.157500267028809
15.649999618530273
15.420000076293945
16.045000076293945
16.082500457763672
15.837499618530273
15.664999961853027
14.907500267028809
15.237500190734863
15.074999809265137
14.782500267028809
14.787500381469727
14.787500381469727
15.164999961853027
15.390000343322754
15.522500038146973
15.042499542236328
15.260000228881836
15.522500038146973
15.46500015258789
15.712499618530273
15.77750015258789
15.84749984741211
16.637500762939453
16.75749969482422
16.177499771118164
16.350000381469727
15.237500190734863
15.274999618530273
15.555000305175781
15.880000114440918
16.354999542236328
16.645000457763672
16.65250015258789
16.594999313354492
16.502500534057617
16.594999313354492
16.325000762939453
15.7524995803833
16.002500534057617
15.84749984741211
16.079999923706055
16.22249984741211
16.157499313354492
15.90999984741211
16.0575008392334
16.235000610351562
15.97249984741211
15.817500114440918
15.0625
14.9975004196167
14.917499542236328
14.6274995803833
14.524999618530273
14.694999694824219
14.672499656677246
15.244999885559082
16.107500076293945
16.6825008392334
16.1875
16.1299991607666
16.357500076293945
16.200000762939453
15.970000267028809
16.732500076293945
16.3075008392334
16.452499389648438
16.8700008392334
15.795000076293945
15.8725004196167
15.65999984741211
15.742500305175781
15.71500015258789
16.084999084472656
15.532500267028809
15.800000190734863
16.327499389648438
16.360000610351562
16.34000015258789
16.287500381469727
16.19499969482422
16.087499618530273
16.392499923706055
16.389999389648438
15.762499809265137
16.0575008392334
15.854999542236328
15.637499809265137
15.09749984741211
14.914999961853027
14.6274995803833
14.762499809265137
14.72249984741211
15.279999732971191
15.5649995803833
15.317500114440918
15.524999618530273
15.682499885559082
16.017499923706055
16.204999923706055
16.612499237060547
17.087499618530273
16.0674991607666
16.197500228881836
15.53499984741211
15.779999732971191
15.712499618530273
15.944999694824219
16.372499465942383
16.665000915527344
16.764999389648438
16.625
16.332500457763672
16.1299991607666
15.907500267028809
15.194999694824219
15.050000190734863
15.104999542236328
15.539999961853027
15.762499809265137
15.739999771118164
15.892499923706055
15.147500038146973
15.194999694824219
15.3149995803833
15.3125
15.53499984741211
15.130000114440918
15.292499542236328
15.587499618530273
15.182499885559082
15.667499542236328
15.545000076293945
15.357500076293945
15.1274995803833
14.645000457763672
15.100000381469727
15.552499771118164
15.430000305175781
15.712499618530273
15.462499618530273
15.319999694824219
15.467499732971191
15.47249984741211
15.462499618530273
15.6274995803833
15.84749984741211
16.387500762939453
16.602500915527344
16.287500381469727
16.082500457763672
16.020000457763672
16.457500457763672
16.514999389648438
16.350000381469727
16.760000228881836
16.020000457763672
16.360000610351562
16.299999237060547
14.979999542236328
15.162500381469727
15.292499542236328
14.737500190734863
15.755000114440918
15.232500076293945
15.359999656677246
15.949999809265137
15.875
15.987500190734863
16.34000015258789
16.40250015258789
16.412500381469727
16.420000076293945
16.542499542236328
15.882499694824219
16.125
16.770000457763672
16.815000534057617
17.092500686645508
17.170000076293945
16.760000228881836
16.74250030517578
16.797500610351562
16.5049991607666
17.082500457763672
16.712499618530273
16.34749984741211
16.59749984741211
16.049999237060547
16.292499542236328
16.3075008392334
15.982500076293945
15.989999771118164
15.270000457763672
15.082500457763672
15.265000343322754
15.0625
15.96500015258789
15.852499961853027
15.927499771118164
16.3174991607666
16.079999923706055
15.8774995803833
16.5575008392334
15.925000190734863
15.397500038146973
15.582500457763672
15.77750015258789
16.235000610351562
16.959999084472656
16.647499084472656
15.904999732971191
16.03499984741211
16.4424991607666
16.4375
17.4375
17.4375
16.899999618530273
17.037500381469727
16.760000228881836
15.895000457763672
15.957500457763672
16.5625
16.850000381469727
16.547500610351562
16.717500686645508
16.457500457763672
16.137500762939453
16.172500610351562
16.145000457763672
15.357500076293945
15.75
15.854999542236328
16.13249969482422
16.59749984741211
16.672500610351562
16.655000686645508
16.207500457763672
15.787500381469727
15.732500076293945
15.899999618530273
16.102500915527344
15.992500305175781
15.90999984741211
16.11750030517578
16.107500076293945
15.9375
16.475000381469727
16.1875
16.49250030517578
16.31999969482422
16.5674991607666
16.3125
15.632499694824219
15.399999618530273
15.357500076293945
16.05500030517578
16.5049991607666
17.030000686645508
16.6299991607666
16.247499465942383
16.010000228881836
15.977499961853027
15.77750015258789
16.204999923706055
15.699999809265137
15.907500267028809
16.094999313354492
15.862500190734863
16.344999313354492
16.822500228881836
16.3799991607666
16.297500610351562
15.454999923706055
14.8774995803833
15.875
16.1875
17.200000762939453
17.292499542236328
16.799999237060547
16.170000076293945
16.512500762939453
17.125
17.31999969482422
17.112499237060547
16.809999465942383
16.572500228881836
16.167499542236328
16.537500381469727
16.447500228881836
16.110000610351562
16.584999084472656
16.582500457763672
15.982500076293945
16.197500228881836
16.450000762939453
16.075000762939453
16.385000228881836
16.032499313354492
15.885000228881836
15.917499542236328
15.817500114440918
16.592500686645508
16.549999237060547
16.80500030517578
16.96500015258789
17.104999542236328
17.0674991607666
17.235000610351562
16.63249969482422
16.309999465942383
15.77750015258789
15.289999961853027
15.274999618530273
15.917499542236328
16.717500686645508
15.97249984741211
16.05500030517578
16.46500015258789
16.102500915527344
16.72249984741211
16.332500457763672
16.122499465942383
16.1875
15.75
16.09000015258789
16.202499389648438
15.5600004196167
15.882499694824219
16.28499984741211
16.637500762939453
16.957500457763672
17.424999237060547
18.137500762939453
17.4325008392334
16.627500534057617
16.0625
15.704999923706055
15.602499961853027
15.602499961853027
15.739999771118164
16.0674991607666
15.712499618530273
16.467500686645508
16.03499984741211
15.802499771118164
16.47249984741211
16.137500762939453
15.947500228881836
16.6825008392334
16.637500762939453
17.417499542236328
17.31999969482422
16.917499542236328
16.040000915527344
15.579999923706055
15.237500190734863
15.47249984741211
16.18000030517578
16.2549991607666
16.360000610351562
16.727500915527344
16.282499313354492
17.3700008392334
17.452499389648438
17.8125
17.774999618530273
17.732500076293945
17.280000686645508
16.572500228881836
16.46500015258789
16.272499084472656
16.8799991607666
17.3174991607666
17.079999923706055
17.3125
16.822500228881836
17.172500610351562
16.65250015258789
16.977500915527344
17.002500534057617
16.610000610351562
16.642499923706055
16.9950008392334
17.094999313354492
17.467500686645508
16.977500915527344
16.477500915527344
16.587499618530273
16.662500381469727
16.412500381469727
16.627500534057617
16.854999542236328
16.787500381469727
17.204999923706055
17.639999389648438
17.802499771118164
17.104999542236328
16.47249984741211
16.729999542236328
16.52750015258789
16.877500534057617
17.352500915527344
16.99250030517578
16.940000534057617
16.315000534057617
16.469999313354492
16.40999984741211
16.219999313354492
16.887500762939453
16.087499618530273
16.610000610351562
17.162500381469727
16.350000381469727
16.607500076293945
17.3799991607666
16.8799991607666
17.387500762939453
17.799999237060547
17.43000030517578
17.290000915527344
17.274999618530273
16.920000076293945
17.1924991607666
16.90250015258789
16.537500381469727
16.802499771118164
16.770000457763672
16.920000076293945
17.712499618530273
17.797500610351562
17.385000228881836
17.4424991607666
16.78499984741211
16.6924991607666
16.572500228881836
16.877500534057617
16.797500610351562
17.397499084472656
17.920000076293945
17.479999542236328
17.684999465942383
17.05500030517578
17.102500915527344
16.917499542236328
17.200000762939453
17.782499313354492
17.047500610351562
16.795000076293945
16.559999465942383
16.774999618530273
17.104999542236328
18.100000381469727
18.434999465942383
18.06999969482422
18.0575008392334
17.587499618530273
17.559999465942383
18.104999542236328
17.732500076293945
17.405000686645508
17.072500228881836
16.344999313354492
16.667499542236328
16.459999084472656
16.362499237060547
17.02750015258789
16.837499618530273
17.337499618530273
17.912500381469727
16.86750030517578
17.3700008392334
17.440000534057617
16.975000381469727
17.037500381469727
17.262500762939453
17.375
17.450000762939453
17.672500610351562
17.174999237060547
17.167499542236328
16.697500228881836
16.90999984741211
17.3700008392334
18.0674991607666
17.90250015258789
17.907499313354492
17.864999771118164
17.770000457763672
17.75
18.0674991607666
17.732500076293945
17.920000076293945
17.767499923706055
17.967500686645508
17.497499465942383
17.40250015258789
16.517499923706055
16.357500076293945
15.957500457763672
16.06999969482422
16.762500762939453
16.770000457763672
17.584999084472656
17.850000381469727
17.25
16.614999771118164
16.212499618530273
15.914999961853027
15.917499542236328
16.862499237060547
17.204999923706055
17.489999771118164
17.982500076293945
17.997499465942383
17.924999237060547
18.042499542236328
17.739999771118164
16.982500076293945
17.155000686645508
16.56999969482422
16.912500381469727
17.447500228881836
17.65999984741211
17.75749969482422
17.702499389648438
17.3799991607666
17.8125
17.547500610351562
17.667499542236328
17.309999465942383
17.139999389648438
17.022499084472656
17.299999237060547
17.674999237060547
18.022499084472656
18.202499389648438
17.9950008392334
17.405000686645508
16.857500076293945
16.857500076293945
17.102500915527344
16.790000915527344
17.575000762939453
17.61750030517578
17.985000610351562
18.142499923706055
17.90999984741211
17.815000534057617
18.71500015258789
18.5049991607666
18.232500076293945
17.732500076293945
16.934999465942383
17.1825008392334
16.99250030517578
17.27750015258789
16.65250015258789
16.63249969482422
16.885000228881836
16.977500915527344
17.732500076293945
17.575000762939453
17.467500686645508
17.15999984741211
16.96500015258789
17.225000381469727
17.397499084472656
17.572500228881836
17.397499084472656
17.885000228881836
18.0674991607666
18.162500381469727
17.377500534057617
17.2450008392334
16.86750030517578
16.584999084472656
16.832500457763672
17.47249984741211
18.690000534057617
18.537500381469727
18.582500457763672
18.979999542236328
18.852500915527344
18.139999389648438
18.862499237060547
18.032499313354492
17.327499389648438
16.9325008392334
16.600000381469727
16.709999084472656
17.040000915527344
17.420000076293945
17.017499923706055
17.387500762939453
17.045000076293945
17.157499313354492
17.00749969482422
16.579999923706055
16.204999923706055
16.709999084472656
16.727500915527344
17.137500762939453
17.364999771118164
17.225000381469727
17.450000762939453
17.627500534057617
18.11750030517578
17.844999313354492
17.985000610351562
18.34749984741211
17.667499542236328
18.087499618530273
17.40250015258789
17.334999084472656
17.68000030517578
17.875
17.702499389648438
17.645000457763672
17.3799991607666
17.38249969482422
18.235000610351562
18.532499313354492
18.422500610351562
18.4424991607666
18.237499237060547
18.207500457763672
17.670000076293945
17.56999969482422
17.43000030517578
17.174999237060547
17.322500228881836
17.56999969482422
18.13249969482422
18.127500534057617
18.102500915527344
18.24250030517578
18.3174991607666
18.3125
18.125
18.202499389648438
18.264999389648438
17.97249984741211
17.857500076293945
17.787500381469727
17.987499237060547
18.540000915527344
18.28499984741211
18.239999771118164
18.017499923706055
17.71500015258789
17.427499771118164
17.610000610351562
17.149999618530273
16.75749969482422
16.637500762939453
16.93000030517578
17.47249984741211
18.190000534057617
18.4325008392334
17.8700008392334
17.7549991607666
17.957500457763672
17.899999618530273
17.532499313354492
17.329999923706055
17.645000457763672
17.207500457763672
16.440000534057617
16.537500381469727
16.225000381469727
16.844999313354492
17.834999084472656
18.552499771118164
18.147499084472656
17.600000381469727
17.22249984741211
17.075000762939453
17.850000381469727
18.512500762939453
18.40250015258789
18.477500915527344
18.977500915527344
19.1825008392334
19.142499923706055
18.510000228881836
18.915000915527344
18.24250030517578
18.610000610351562
18.602500915527344
18.1924991607666
18.02750015258789
17.84000015258789
18.217500686645508
18.3075008392334
18.829999923706055
18.309999465942383
18.172500610351562
18.25
17.854999542236328
17.547500610351562
17.860000610351562
17.655000686645508
16.892499923706055
17.112499237060547
16.88249969482422
17.454999923706055
17.732500076293945
17.924999237060547
17.655000686645508
17.797500610351562
18.077499389648438
17.927499771118164
17.862499237060547
18.049999237060547
18.127500534057617
18.252500534057617
18.165000915527344
18.927499771118164
18.467500686645508
18.602500915527344
18.587499618530273
18.0049991607666
17.5049991607666
17.457500457763672
17.762500762939453
18.014999389648438
18.7450008392334
19.2549991607666
18.967500686645508
18.457500457763672
18.237499237060547
17.852500915527344
17.34749984741211
18.09000015258789
18.332500457763672
17.962499618530273
18.424999237060547
18.079999923706055
17.6924991607666
18.4424991607666
18.424999237060547
18.649999618530273
18.704999923706055
18.709999084472656
18.22249984741211
18.717500686645508
18.5625
18.065000534057617
17.792499542236328
17.264999389648438
17.575000762939453
17.93000030517578
18.922500610351562
18.99250030517578
19.017499923706055
18.860000610351562
18.780000686645508
18.497499465942383
18.229999542236328
18.337499618530273
18.309999465942383
18.4950008392334
17.950000762939453
18.1200008392334
17.950000762939453
17.84000015258789
17.8799991607666
17.950000762939453
17.709999084472656
18.022499084472656
17.667499542236328
17.649999618530273
17.469999313354492
17.1924991607666
17.424999237060547
17.540000915527344
17.607500076293945
17.934999465942383
18.049999237060547
17.69499969482422
17.86750030517578
18.047500610351562
17.8125
18.40999984741211
18.107500076293945
17.99250030517578
17.899999618530273
17.68000030517578
17.6924991607666
17.950000762939453
17.892499923706055
17.80500030517578
18.252500534057617
18.537500381469727
18.71500015258789
18.907499313354492
19.217500686645508
18.760000228881836
18.7549991607666
18.697500228881836
18.857500076293945
19.145000457763672
18.592500686645508
17.88249969482422
17.627500534057617
17.607500076293945
17.59749984741211
17.487499237060547
17.357500076293945
17.142499923706055
17.012500762939453
17.334999084472656
17.834999084472656
18.107500076293945
18.577499389648438
18.537500381469727
18.719999313354492
18.104999542236328
17.99250030517578
18.024999618530273
17.772499084472656
17.739999771118164
18.2549991607666
18.045000076293945
17.982500076293945
18.114999771118164
18.415000915527344
18.190000534057617
18.3075008392334
18.65999984741211
18.247499465942383
18.207500457763672
18.092500686645508
18.2549991607666
18.3799991607666
18.614999771118164
19.1825008392334
19.262500762939453
19.142499923706055
18.829999923706055
18.65250015258789
18.612499237060547
18.405000686645508
18.417499542236328
18.485000610351562
17.97249984741211
18.077499389648438
18.2549991607666
18.452499389648438
18.467500686645508
19.155000686645508
18.90250015258789
18.672500610351562
18.674999237060547
17.84749984741211
17.885000228881836
17.9424991607666
18.452499389648438
18.90250015258789
19.2450008392334
18.9325008392334
18.787500381469727
18.25749969482422
18.457500457763672
18.172500610351562
18.15999984741211
18.5674991607666
18.88249969482422
19.11750030517578
19.262500762939453
19.469999313354492
19.2549991607666
18.93000030517578
18.700000762939453
18.627500534057617
18.68000030517578
18.010000228881836
18.712499618530273
18.502500534057617
18.270000457763672
18.5674991607666
18.325000762939453
18.270000457763672
18.172500610351562
18.18000030517578
18.204999923706055
18.252500534057617
18.587499618530273
19.322500228881836
18.93000030517578
18.11750030517578
17.600000381469727
17.252500534057617
17.459999084472656
17.6924991607666
18.190000534057617
18.719999313354492
18.295000076293945
17.594999313354492
17.4950008392334
17.9375
