EpRewMean
1.39072847366333
1.8725099563598633
2.222222328186035
2.0325000286102295
1.5075000524520874
1.3825000524520874
1.774999976158142
1.899999976158142
1.9249999523162842
1.7825000286102295
2.2074999809265137
2.049999952316284
1.8825000524520874
1.9075000286102295
1.9500000476837158
2.174999952316284
2.4749999046325684
2.1500000953674316
1.9249999523162842
2.2750000953674316
2.0999999046325684
2.174999952316284
2.125
2.2249999046325684
2.2249999046325684
2.0
2.0
2.075000047683716
1.975000023841858
1.9500000476837158
2.200000047683716
2.0999999046325684
1.9574999809265137
2.1075000762939453
2.0
2.075000047683716
2.25
2.424999952316284
2.049999952316284
2.075000047683716
1.9325000047683716
2.1500000953674316
2.375
2.3499999046325684
2.2325000762939453
2.390000104904175
2.182499885559082
2.3324999809265137
2.200000047683716
1.975000023841858
1.8224999904632568
2.047499895095825
2.4574999809265137
2.065000057220459
2.5325000286102295
2.490000009536743
2.007499933242798
2.625
2.6075000762939453
2.375
2.549999952316284
2.700000047683716
2.4749999046325684
2.674999952316284
2.825000047683716
2.632499933242798
2.825000047683716
2.7249999046325684
3.075000047683716
3.25
2.8499999046325684
2.9825000762939453
3.325000047683716
3.132499933242798
3.4000000953674316
2.9749999046325684
3.125
3.0
3.075000047683716
3.4000000953674316
3.5
3.5250000953674316
2.950000047683716
3.382499933242798
3.3499999046325684
3.1500000953674316
2.8324999809265137
3.4000000953674316
3.424999952316284
3.2249999046325684
3.575000047683716
3.049999952316284
3.0
3.125
3.174999952316284
3.299999952316284
3.75
3.625
3.075000047683716
3.549999952316284
3.200000047683716
3.25
2.875
3.450000047683716
3.549999952316284
3.125
3.4000000953674316
3.424999952316284
3.25
3.5999999046325684
3.75
3.700000047683716
3.4000000953674316
3.875
3.5
3.25
3.432499885559082
3.674999952316284
3.299999952316284
3.4000000953674316
3.3324999809265137
3.632499933242798
3.700000047683716
3.375
3.5250000953674316
3.490000009536743
3.3499999046325684
3.5250000953674316
4.025000095367432
3.8499999046325684
3.674999952316284
3.6500000953674316
3.325000047683716
3.674999952316284
3.182499885559082
3.424999952316284
3.25
3.825000047683716
3.882499933242798
3.640000104904175
3.1549999713897705
3.390000104904175
3.4825000762939453
3.765000104904175
3.6075000762939453
3.0399999618530273
3.1649999618530273
3.4725000858306885
3.640000104904175
3.575000047683716
3.825000047683716
3.674999952316284
3.7325000762939453
3.9075000286102295
4.25
3.875
3.674999952316284
3.700000047683716
3.7750000953674316
3.8499999046325684
3.75
3.9000000953674316
3.75
3.8499999046325684
3.625
3.799999952316284
4.050000190734863
4.074999809265137
4.074999809265137
4.207499980926514
4.074999809265137
3.950000047683716
4.349999904632568
4.349999904632568
3.8499999046325684
3.674999952316284
3.9749999046325684
4.050000190734863
3.924999952316284
4.050000190734863
4.125
4.375
3.6500000953674316
4.400000095367432
4.099999904632568
3.5250000953674316
4.057499885559082
4.082499980926514
4.332499980926514
4.0
4.074999809265137
3.75
4.207499980926514
3.625
4.182499885559082
4.199999809265137
4.425000190734863
3.8499999046325684
4.275000095367432
4.224999904632568
4.190000057220459
3.932499885559082
3.75
4.349999904632568
3.924999952316284
3.8324999809265137
3.9149999618530273
3.9725000858306885
3.5299999713897705
3.940000057220459
3.9725000858306885
4.022500038146973
4.082499980926514
4.199999809265137
4.15749979019165
4.125
3.8499999046325684
4.03249979019165
4.539999961853027
4.699999809265137
4.697500228881836
4.307499885559082
4.40749979019165
3.757499933242798
3.9574999809265137
4.574999809265137
4.474999904632568
4.357500076293945
4.682499885559082
4.449999809265137
4.074999809265137
4.300000190734863
4.550000190734863
4.132500171661377
4.78249979019165
4.332499980926514
4.375
4.150000095367432
4.324999809265137
4.199999809265137
4.199999809265137
4.275000095367432
4.332499980926514
4.425000190734863
4.457499980926514
4.574999809265137
4.925000190734863
4.125
4.5
4.557499885559082
4.550000190734863
4.599999904632568
4.582499980926514
4.257500171661377
4.707499980926514
4.675000190734863
4.482500076293945
4.732500076293945
4.574999809265137
4.582499980926514
4.824999809265137
5.007500171661377
4.882500171661377
4.522500038146973
4.364999771118164
5.114999771118164
5.057499885559082
4.465000152587891
4.554999828338623
4.622499942779541
4.474999904632568
4.514999866485596
4.40749979019165
4.522500038146973
4.78000020980835
4.947500228881836
4.447500228881836
4.497499942779541
4.78000020980835
4.902500152587891
4.880000114440918
4.647500038146973
4.579999923706055
4.732500076293945
5.072500228881836
4.987500190734863
4.897500038146973
4.822500228881836
5.125
5.539999961853027
4.815000057220459
4.53249979019165
5.147500038146973
5.097499847412109
5.239999771118164
4.945000171661377
4.795000076293945
4.672500133514404
4.960000038146973
5.119999885559082
5.179999828338623
5.357500076293945
4.994999885559082
4.985000133514404
5.070000171661377
5.170000076293945
4.777500152587891
4.90500020980835
4.894999980926514
5.235000133514404
5.182499885559082
5.059999942779541
5.329999923706055
5.304999828338623
4.872499942779541
4.827499866485596
5.054999828338623
5.40500020980835
4.929999828338623
4.917500019073486
4.982500076293945
4.832499980926514
5.110000133514404
5.329999923706055
5.372499942779541
5.15749979019165
5.260000228881836
5.422500133514404
5.242499828338623
5.215000152587891
5.494999885559082
5.317500114440918
5.539999961853027
5.550000190734863
5.362500190734863
5.837500095367432
6.102499961853027
6.372499942779541
6.1875
6.037499904632568
5.512499809265137
5.849999904632568
5.802499771118164
6.007500171661377
5.337500095367432
5.920000076293945
6.1875
5.789999961853027
6.224999904632568
5.987500190734863
6.137499809265137
5.960000038146973
5.71750020980835
5.942500114440918
6.097499847412109
6.230000019073486
6.099999904632568
5.78000020980835
6.059999942779541
6.295000076293945
5.947500228881836
5.867499828338623
5.647500038146973
5.954999923706055
6.019999980926514
6.202499866485596
5.675000190734863
5.599999904632568
6.215000152587891
5.707499980926514
5.914999961853027
6.105000019073486
5.872499942779541
6.137499809265137
6.242499828338623
5.992499828338623
6.074999809265137
6.315000057220459
6.317500114440918
6.262499809265137
6.269999980926514
6.204999923706055
6.474999904632568
6.349999904632568
6.46999979019165
6.704999923706055
6.427499771118164
6.65500020980835
6.510000228881836
6.25
6.159999847412109
5.90500020980835
6.8125
6.684999942779541
6.507500171661377
6.53000020980835
6.552499771118164
7.132500171661377
6.755000114440918
6.914999961853027
6.847499847412109
7.144999980926514
6.962500095367432
6.885000228881836
7.170000076293945
7.239999771118164
6.867499828338623
7.179999828338623
7.272500038146973
7.15749979019165
7.440000057220459
7.412499904632568
7.337500095367432
7.087500095367432
7.427499771118164
7.364999771118164
7.007500171661377
7.332499980926514
7.652500152587891
7.027500152587891
7.347499847412109
7.347499847412109
7.622499942779541
7.59499979019165
7.639999866485596
7.237500190734863
7.769999980926514
7.684999942779541
7.539999961853027
7.667500019073486
8.149999618530273
7.724999904632568
7.977499961853027
8.107500076293945
7.715000152587891
8.142499923706055
8.217499732971191
8.307499885559082
7.914999961853027
8.024999618530273
8.40999984741211
8.085000038146973
8.107500076293945
8.229999542236328
8.242500305175781
8.46500015258789
8.654999732971191
8.637499809265137
8.635000228881836
8.694999694824219
8.21500015258789
7.807499885559082
8.337499618530273
8.542499542236328
8.517499923706055
7.797500133514404
8.552499771118164
8.805000305175781
8.744999885559082
8.327500343322754
8.524999618530273
8.637499809265137
8.677499771118164
8.680000305175781
8.65999984741211
8.407500267028809
8.404999732971191
8.729999542236328
8.8774995803833
8.477499961853027
8.34000015258789
8.487500190734863
8.699999809265137
8.882499694824219
8.592499732971191
8.960000038146973
8.789999961853027
8.4975004196167
9.005000114440918
8.967499732971191
8.7524995803833
8.90250015258789
9.067500114440918
8.842499732971191
8.920000076293945
8.805000305175781
9.0600004196167
9.125
8.914999961853027
9.092499732971191
9.34749984741211
9.079999923706055
8.822500228881836
9.077500343322754
9.260000228881836
9.22249984741211
9.15999984741211
8.787500381469727
9.119999885559082
9.547499656677246
9.234999656677246
9.082500457763672
9.1274995803833
9.272500038146973
9.132499694824219
9.167499542236328
9.244999885559082
9.614999771118164
9.345000267028809
9.15250015258789
9.005000114440918
9.107500076293945
8.859999656677246
9.037500381469727
8.827500343322754
8.8125
9.032500267028809
9.47249984741211
9.454999923706055
9.1899995803833
9.387499809265137
9.25
9.359999656677246
8.967499732971191
9.020000457763672
8.795000076293945
9.104999542236328
9.449999809265137
9.510000228881836
9.449999809265137
9.484999656677246
9.21500015258789
9.417499542236328
9.699999809265137
9.885000228881836
9.779999732971191
8.994999885559082
9.142499923706055
9.407500267028809
9.220000267028809
8.800000190734863
9.317500114440918
9.364999771118164
9.137499809265137
9.292499542236328
9.482500076293945
9.757499694824219
9.755000114440918
9.797499656677246
10.022500038146973
10.0024995803833
9.0649995803833
9.265000343322754
8.967499732971191
9.567500114440918
9.4975004196167
9.217499732971191
9.4375
9.362500190734863
9.104999542236328
9.664999961853027
9.7475004196167
9.869999885559082
9.702500343322754
9.6274995803833
9.782500267028809
10.045000076293945
9.922499656677246
9.399999618530273
9.505000114440918
9.487500190734863
9.760000228881836
9.862500190734863
9.822500228881836
9.587499618530273
9.732500076293945
9.962499618530273
9.930000305175781
9.949999809265137
9.960000038146973
10.100000381469727
9.552499771118164
9.390000343322754
9.47249984741211
9.9375
9.737500190734863
9.954999923706055
9.390000343322754
9.204999923706055
9.282500267028809
9.757499694824219
9.892499923706055
9.960000038146973
10.192500114440918
9.949999809265137
9.71500015258789
9.52750015258789
9.602499961853027
10.135000228881836
9.572500228881836
9.302499771118164
9.744999885559082
10.167499542236328
10.119999885559082
10.03499984741211
10.642499923706055
9.897500038146973
10.037500381469727
10.037500381469727
9.6875
9.617500305175781
9.8774995803833
9.767499923706055
9.875
10.202500343322754
9.890000343322754
9.800000190734863
9.762499809265137
9.725000381469727
9.7524995803833
9.925000190734863
10.020000457763672
10.0625
9.672499656677246
10.0024995803833
10.112500190734863
10.22249984741211
9.842499732971191
10.220000267028809
9.97249984741211
9.970000267028809
10.15250015258789
10.037500381469727
9.765000343322754
10.045000076293945
9.699999809265137
9.694999694824219
9.515000343322754
9.975000381469727
9.65250015258789
10.244999885559082
10.257499694824219
9.852499961853027
9.4375
9.550000190734863
9.727499961853027
10.082500457763672
10.095000267028809
9.977499961853027
10.007499694824219
10.217499732971191
9.942500114440918
9.912500381469727
10.255000114440918
10.375
10.274999618530273
10.6225004196167
10.404999732971191
10.212499618530273
10.1875
10.135000228881836
9.697500228881836
9.702500343322754
10.282500267028809
10.207500457763672
10.585000038146973
10.524999618530273
10.6274995803833
10.449999809265137
10.677499771118164
10.287500381469727
10.262499809265137
10.337499618530273
10.489999771118164
10.132499694824219
10.0649995803833
10.329999923706055
9.75
9.994999885559082
10.390000343322754
10.107500076293945
9.970000267028809
10.177499771118164
10.557499885559082
10.03499984741211
10.204999923706055
10.217499732971191
10.194999694824219
9.90250015258789
9.609999656677246
10.78499984741211
10.5024995803833
10.305000305175781
10.467499732971191
10.390000343322754
10.09000015258789
9.882499694824219
9.979999542236328
10.0600004196167
10.0649995803833
10.5625
10.712499618530273
10.914999961853027
10.3125
10.212499618530273
10.34000015258789
10.267499923706055
10.452500343322754
10.067500114440918
10.154999732971191
10.479999542236328
10.420000076293945
10.1899995803833
10.367500305175781
10.725000381469727
10.717499732971191
10.34000015258789
10.335000038146973
10.359999656677246
10.207500457763672
10.725000381469727
10.399999618530273
10.592499732971191
10.1850004196167
10.557499885559082
10.255000114440918
10.09749984741211
10.257499694824219
10.677499771118164
10.609999656677246
10.725000381469727
10.34749984741211
10.699999809265137
10.822500228881836
10.420000076293945
10.4399995803833
10.167499542236328
10.960000038146973
10.854999542236328
10.367500305175781
10.170000076293945
10.307499885559082
10.404999732971191
10.292499542236328
10.805000305175781
10.507499694824219
10.432499885559082
10.244999885559082
10.444999694824219
10.295000076293945
10.649999618530273
10.882499694824219
10.612500190734863
10.072500228881836
10.359999656677246
10.647500038146973
10.482500076293945
10.520000457763672
10.802499771118164
10.507499694824219
10.352499961853027
10.489999771118164
10.619999885559082
10.880000114440918
10.762499809265137
11.057499885559082
10.672499656677246
10.392499923706055
10.569999694824219
10.645000457763672
10.552499771118164
10.067500114440918
10.392499923706055
10.572500228881836
10.882499694824219
10.532500267028809
10.332500457763672
10.680000305175781
10.550000190734863
10.404999732971191
10.442500114440918
10.5625
10.484999656677246
10.727499961853027
10.289999961853027
10.6225004196167
10.547499656677246
10.899999618530273
11.100000381469727
11.032500267028809
10.414999961853027
10.449999809265137
10.484999656677246
10.832500457763672
10.770000457763672
10.779999732971191
10.960000038146973
10.807499885559082
10.762499809265137
10.577500343322754
10.984999656677246
11.157500267028809
10.482500076293945
10.607500076293945
10.520000457763672
10.40250015258789
10.324999809265137
10.172499656677246
10.449999809265137
10.177499771118164
11.117500305175781
10.987500190734863
10.4975004196167
10.387499809265137
10.640000343322754
10.617500305175781
10.4399995803833
10.645000457763672
11.042499542236328
10.854999542236328
10.819999694824219
10.635000228881836
11.095000267028809
10.824999809265137
10.880000114440918
10.607500076293945
10.84749984741211
10.77750015258789
10.9375
10.642499923706055
10.97249984741211
10.640000343322754
11.182499885559082
11.037500381469727
11.037500381469727
10.84749984741211
10.797499656677246
10.447500228881836
10.927499771118164
10.827500343322754
10.390000343322754
10.727499961853027
10.645000457763672
10.762499809265137
10.795000076293945
11.1274995803833
10.672499656677246
10.725000381469727
10.90250015258789
10.522500038146973
10.5
10.6899995803833
10.350000381469727
10.204999923706055
10.529999732971191
9.837499618530273
10.300000190734863
10.362500190734863
10.640000343322754
10.65250015258789
10.734999656677246
10.647500038146973
10.385000228881836
10.71500015258789
10.542499542236328
10.6225004196167
10.404999732971191
10.482500076293945
10.425000190734863
10.84749984741211
10.994999885559082
10.417499542236328
10.192500114440918
10.329999923706055
10.327500343322754
10.517499923706055
10.457500457763672
10.587499618530273
10.779999732971191
10.84749984741211
10.697500228881836
10.765000343322754
11.15999984741211
10.767499923706055
10.805000305175781
10.2475004196167
10.552499771118164
10.692500114440918
10.994999885559082
10.649999618530273
10.390000343322754
10.667499542236328
10.194999694824219
10.967499732971191
10.797499656677246
10.292499542236328
10.569999694824219
10.977499961853027
10.46500015258789
10.614999771118164
10.619999885559082
10.662500381469727
10.350000381469727
10.532500267028809
11.207500457763672
10.727499961853027
11.057499885559082
10.670000076293945
10.857500076293945
10.850000381469727
10.850000381469727
10.795000076293945
11.1274995803833
11.385000228881836
11.317500114440918
10.762499809265137
10.460000038146973
10.885000228881836
10.904999732971191
10.694999694824219
10.984999656677246
11.262499809265137
11.569999694824219
11.1875
10.914999961853027
10.975000381469727
10.989999771118164
11.077500343322754
10.7524995803833
11.072500228881836
11.234999656677246
10.899999618530273
10.77750015258789
10.53499984741211
10.742500305175781
10.760000228881836
10.970000267028809
10.925000190734863
10.864999771118164
11.079999923706055
11.005000114440918
10.817500114440918
10.167499542236328
10.5649995803833
10.387499809265137
10.967499732971191
10.729999542236328
10.907500267028809
10.632499694824219
10.65999984741211
11.142499923706055
10.6850004196167
10.9375
10.84749984741211
10.619999885559082
10.802499771118164
10.640000343322754
11.005000114440918
11.317500114440918
11.02750015258789
10.90999984741211
10.827500343322754
11.005000114440918
10.8774995803833
10.505000114440918
10.760000228881836
10.635000228881836
10.774999618530273
10.882499694824219
10.727499961853027
10.662500381469727
10.767499923706055
10.920000076293945
10.572500228881836
10.845000267028809
10.739999771118164
10.612500190734863
10.5600004196167
10.65999984741211
10.34000015258789
10.317500114440918
10.732500076293945
10.927499771118164
10.885000228881836
10.555000305175781
11.157500267028809
11.09000015258789
10.795000076293945
10.859999656677246
10.6850004196167
10.792499542236328
11.414999961853027
11.022500038146973
10.602499961853027
10.550000190734863
10.645000457763672
10.625
10.744999885559082
10.920000076293945
11.107500076293945
10.78499984741211
10.522500038146973
10.930000305175781
11.085000038146973
10.732500076293945
10.852499961853027
10.927499771118164
10.862500190734863
10.832500457763672
10.882499694824219
10.710000038146973
10.8125
11.082500457763672
11.172499656677246
10.957500457763672
10.8774995803833
11.03499984741211
10.782500267028809
10.970000267028809
10.869999885559082
10.890000343322754
10.792499542236328
11.1225004196167
11.354999542236328
10.827500343322754
10.767499923706055
10.827500343322754
10.857500076293945
10.585000038146973
10.800000190734863
11.135000228881836
10.975000381469727
10.852499961853027
10.9375
10.4975004196167
10.342499732971191
10.737500190734863
10.952500343322754
10.885000228881836
10.789999961853027
10.742500305175781
10.579999923706055
10.569999694824219
10.78499984741211
10.694999694824219
10.430000305175781
10.6850004196167
11.104999542236328
10.845000267028809
10.819999694824219
10.505000114440918
11.03499984741211
11.022500038146973
11.229999542236328
11.1225004196167
10.800000190734863
10.717499732971191
10.835000038146973
10.78499984741211
10.617500305175781
10.720000267028809
10.829999923706055
10.917499542236328
11.032500267028809
10.832500457763672
10.869999885559082
10.765000343322754
11.202500343322754
11.319999694824219
11.3125
11.720000267028809
10.9399995803833
10.914999961853027
10.547499656677246
10.90250015258789
10.947500228881836
10.65999984741211
11.192500114440918
11.292499542236328
10.522500038146973
10.77750015258789
10.78499984741211
11.192500114440918
10.845000267028809
10.75
11.067500114440918
11.197500228881836
10.5024995803833
10.742500305175781
10.65999984741211
10.760000228881836
10.430000305175781
11.03499984741211
11.392499923706055
11.267499923706055
10.907500267028809
10.970000267028809
11.3774995803833
11.237500190734863
10.817500114440918
10.832500457763672
11.012499809265137
10.949999809265137
11.164999961853027
10.782500267028809
10.46500015258789
10.857500076293945
10.897500038146973
11.0625
11.47249984741211
11.017499923706055
11.079999923706055
10.952500343322754
11.452500343322754
11.210000038146973
10.97249984741211
10.802499771118164
10.859999656677246
10.930000305175781
11.085000038146973
10.824999809265137
10.787500381469727
11.232500076293945
10.944999694824219
10.8725004196167
10.912500381469727
10.989999771118164
10.9975004196167
11.024999618530273
11.045000076293945
10.779999732971191
11.039999961853027
11.117500305175781
11.194999694824219
10.954999923706055
10.897500038146973
11.015000343322754
10.957500457763672
10.895000457763672
10.917499542236328
10.835000038146973
11.147500038146973
11.117500305175781
10.460000038146973
11.15250015258789
11.227499961853027
10.8125
11.420000076293945
10.917499542236328
10.954999923706055
10.994999885559082
10.822500228881836
11.03499984741211
10.890000343322754
10.8725004196167
10.892499923706055
11.037500381469727
10.837499618530273
10.952500343322754
10.880000114440918
11.182499885559082
10.8149995803833
10.707500457763672
10.585000038146973
10.505000114440918
10.802499771118164
10.9975004196167
11.020000457763672
10.96500015258789
10.662500381469727
11.332500457763672
10.930000305175781
10.779999732971191
11.220000267028809
11.037500381469727
10.917499542236328
10.699999809265137
11.100000381469727
11.3725004196167
10.8774995803833
11.0024995803833
11.180000305175781
11.0625
10.899999618530273
10.635000228881836
11.40250015258789
11.007499694824219
11.204999923706055
11.055000305175781
10.9350004196167
11.045000076293945
11.40999984741211
10.824999809265137
10.975000381469727
10.975000381469727
11.417499542236328
11.055000305175781
11.175000190734863
11.039999961853027
11.007499694824219
11.055000305175781
10.824999809265137
10.869999885559082
11.147500038146973
11.645000457763672
11.369999885559082
11.354999542236328
11.3725004196167
11.335000038146973
11.510000228881836
11.1899995803833
11.337499618530273
11.47249984741211
11.529999732971191
11.104999542236328
11.172499656677246
11.4975004196167
11.199999809265137
11.180000305175781
11.104999542236328
11.22249984741211
11.255000114440918
11.135000228881836
11.0600004196167
10.895000457763672
10.720000267028809
11.107500076293945
10.925000190734863
11.012499809265137
11.4350004196167
11.1899995803833
10.885000228881836
11.114999771118164
11.119999885559082
11.149999618530273
11.232500076293945
11.085000038146973
11.317500114440918
10.887499809265137
10.954999923706055
11.52750015258789
11.102499961853027
10.982500076293945
10.932499885559082
11.422499656677246
11.212499618530273
11.204999923706055
11.239999771118164
11.010000228881836
11.257499694824219
10.797499656677246
11.157500267028809
10.84000015258789
10.762499809265137
11.172499656677246
11.28499984741211
11.082500457763672
11.005000114440918
11.145000457763672
11.234999656677246
11.302499771118164
11.012499809265137
10.895000457763672
10.885000228881836
11.017499923706055
11.295000076293945
11.524999618530273
11.024999618530273
11.1274995803833
11.210000038146973
10.65999984741211
10.904999732971191
11.092499732971191
11.582500457763672
11.087499618530273
10.987500190734863
11.297499656677246
11.102499961853027
11.182499885559082
11.329999923706055
11.302499771118164
11.260000228881836
10.739999771118164
11.27750015258789
11.369999885559082
11.552499771118164
11.274999618530273
11.079999923706055
11.109999656677246
11.02750015258789
11.242500305175781
11.204999923706055
11.050000190734863
10.960000038146973
10.585000038146973
11.137499809265137
11.102499961853027
10.694999694824219
11.104999542236328
11.010000228881836
10.927499771118164
11.199999809265137
11.1875
11.204999923706055
11.227499961853027
11.039999961853027
11.307499885559082
10.987500190734863
11.267499923706055
11.114999771118164
11.117500305175781
11.032500267028809
11.362500190734863
11.282500267028809
11.380000114440918
11.172499656677246
10.602499961853027
11.15250015258789
11.057499885559082
11.045000076293945
11.172499656677246
11.4375
11.199999809265137
11.092499732971191
10.9350004196167
11.192500114440918
11.520000457763672
11.164999961853027
11.287500381469727
11.164999961853027
11.454999923706055
11.119999885559082
11.617500305175781
11.5649995803833
11.789999961853027
11.047499656677246
11.359999656677246
11.170000076293945
11.052499771118164
11.670000076293945
11.09749984741211
11.432499885559082
10.9350004196167
10.925000190734863
10.612500190734863
11.367500305175781
11.442500114440918
11.350000381469727
11.212499618530273
11.192500114440918
11.350000381469727
11.037500381469727
10.994999885559082
11.237500190734863
11.015000343322754
11.167499542236328
11.217499732971191
11.364999771118164
11.117500305175781
11.34749984741211
11.257499694824219
11.369999885559082
11.082500457763672
11.520000457763672
11.220000267028809
11.145000457763672
11.357500076293945
11.545000076293945
11.295000076293945
11.274999618530273
11.4399995803833
11.322500228881836
11.175000190734863
11.3125
11.112500190734863
11.167499542236328
11.25
11.257499694824219
11.172499656677246
11.02750015258789
11.425000190734863
11.467499732971191
11.2524995803833
11.037500381469727
11.4399995803833
11.53499984741211
11.157500267028809
11.22249984741211
11.307499885559082
10.917499542236328
11.015000343322754
10.949999809265137
11.5649995803833
11.050000190734863
10.734999656677246
11.34000015258789
11.357500076293945
11.442500114440918
11.755000114440918
11.7524995803833
11.770000457763672
11.71500015258789
11.260000228881836
11.390000343322754
11.387499809265137
11.805000305175781
11.837499618530273
11.617500305175781
11.260000228881836
11.585000038146973
11.702500343322754
11.417499542236328
10.859999656677246
11.147500038146973
11.412500381469727
11.492500305175781
11.114999771118164
11.207500457763672
11.274999618530273
11.484999656677246
11.0024995803833
11.4975004196167
11.617500305175781
11.27750015258789
11.430000305175781
11.260000228881836
11.045000076293945
11.22249984741211
11.260000228881836
11.647500038146973
11.6225004196167
11.732500076293945
11.542499542236328
11.177499771118164
11.0649995803833
11.324999809265137
11.460000038146973
11.654999732971191
11.135000228881836
11.270000457763672
11.4975004196167
11.09000015258789
11.172499656677246
11.517499923706055
11.40250015258789
11.020000457763672
10.697500228881836
11.140000343322754
11.302499771118164
11.117500305175781
11.65999984741211
11.537500381469727
11.619999885559082
11.319999694824219
11.055000305175781
11.1899995803833
11.489999771118164
11.050000190734863
10.880000114440918
11.265000343322754
11.710000038146973
11.354999542236328
11.319999694824219
11.202500343322754
11.0600004196167
11.34000015258789
11.5
11.412500381469727
11.524999618530273
11.595000267028809
11.912500381469727
11.34749984741211
11.112500190734863
11.149999618530273
11.369999885559082
10.899999618530273
11.157500267028809
11.494999885559082
11.237500190734863
11.537500381469727
11.760000228881836
11.727499961853027
10.927499771118164
10.802499771118164
11.194999694824219
11.482500076293945
11.537500381469727
11.5024995803833
11.5649995803833
11.27750015258789
11.367500305175781
11.279999732971191
11.337499618530273
11.457500457763672
11.145000457763672
11.385000228881836
11.539999961853027
11.717499732971191
11.699999809265137
11.3100004196167
11.757499694824219
11.337499618530273
11.210000038146973
11.682499885559082
11.524999618530273
11.90250015258789
11.217499732971191
11.130000114440918
11.21500015258789
11.427499771118164
10.912500381469727
11.71500015258789
11.6274995803833
11.319999694824219
11.255000114440918
11.272500038146973
10.867500305175781
10.954999923706055
11.232500076293945
11.3149995803833
11.380000114440918
11.744999885559082
11.27750015258789
11.289999961853027
11.710000038146973
11.162500381469727
