EpRewMean
0.7925000190734863
0.9700000286102295
0.9225000143051147
0.9150000214576721
1.0774999856948853
1.1074999570846558
1.1649999618530273
1.1074999570846558
1.4700000286102295
1.5674999952316284
1.4674999713897705
1.287500023841858
1.6375000476837158
1.3650000095367432
1.5575000047683716
1.340000033378601
1.5575000047683716
1.5924999713897705
1.5325000286102295
1.565000057220459
1.712499976158142
1.6174999475479126
1.4199999570846558
1.5225000381469727
1.524999976158142
1.5449999570846558
1.725000023841858
1.6825000047683716
1.5774999856948853
1.7575000524520874
1.625
1.625
1.7925000190734863
1.8174999952316284
1.8825000524520874
1.7925000190734863
1.8949999809265137
1.9375
1.8600000143051147
1.9175000190734863
2.0199999809265137
2.057499885559082
2.3450000286102295
2.4049999713897705
2.322499990463257
2.432499885559082
2.512500047683716
2.552500009536743
2.7125000953674316
2.4625000953674316
2.950000047683716
2.859999895095825
3.259999990463257
3.2300000190734863
2.8949999809265137
3.2049999237060547
3.257499933242798
3.362499952316284
3.634999990463257
3.0250000953674316
3.692500114440918
3.6475000381469727
3.7149999141693115
3.637500047683716
3.942500114440918
4.262499809265137
4.144999980926514
4.400000095367432
4.492499828338623
4.46750020980835
4.567500114440918
4.702499866485596
4.652500152587891
4.695000171661377
4.847499847412109
4.902500152587891
4.639999866485596
5.127500057220459
4.697500228881836
5.0
4.949999809265137
5.552499771118164
5.369999885559082
5.672500133514404
5.855000019073486
5.297500133514404
5.550000190734863
5.932499885559082
5.510000228881836
5.9375
5.599999904632568
5.675000190734863
6.25
6.300000190734863
5.947500228881836
6.175000190734863
6.277500152587891
6.485000133514404
6.420000076293945
6.537499904632568
6.869999885559082
6.667500019073486
6.337500095367432
7.487500190734863
7.377500057220459
7.21999979019165
6.702499866485596
7.347499847412109
7.179999828338623
6.78249979019165
6.699999809265137
7.639999866485596
6.96999979019165
7.900000095367432
7.0625
7.429999828338623
7.675000190734863
7.835000038146973
8.199999809265137
7.292500019073486
7.835000038146973
8.28499984741211
7.802499771118164
7.545000076293945
7.96750020980835
8.095000267028809
8.154999732971191
8.1225004196167
8.042499542236328
8.0600004196167
8.147500038146973
8.369999885559082
8.770000457763672
8.032500267028809
8.082500457763672
7.982500076293945
8.917499542236328
8.732500076293945
8.914999961853027
8.677499771118164
8.875
8.265000343322754
8.854999542236328
9.699999809265137
9.227499961853027
8.970000267028809
8.734999656677246
8.692500114440918
9.112500190734863
9.09000015258789
9.567500114440918
8.772500038146973
9.732500076293945
9.8100004196167
9.207500457763672
8.914999961853027
9.157500267028809
9.635000228881836
9.532500267028809
9.119999885559082
9.744999885559082
9.470000267028809
9.1899995803833
9.824999809265137
9.922499656677246
9.647500038146973
8.442500114440918
9.112500190734863
9.975000381469727
10.085000038146973
9.5600004196167
9.787500381469727
9.460000038146973
10.272500038146973
10.460000038146973
10.694999694824219
11.162500381469727
9.9350004196167
9.095000267028809
9.52750015258789
10.632499694824219
9.987500190734863
10.055000305175781
9.102499961853027
9.532500267028809
9.2475004196167
9.6899995803833
10.1274995803833
9.210000038146973
9.989999771118164
9.837499618530273
9.387499809265137
9.077500343322754
8.762499809265137
9.322500228881836
9.675000190734863
9.587499618530273
9.787500381469727
10.992500305175781
10.137499809265137
10.15999984741211
10.167499542236328
10.595000267028809
10.835000038146973
11.462499618530273
11.515000343322754
11.2475004196167
10.727499961853027
10.585000038146973
10.34749984741211
10.114999771118164
10.34749984741211
11.2475004196167
11.192500114440918
11.619999885559082
12.012499809265137
11.407500267028809
11.327500343322754
11.135000228881836
11.765000343322754
12.175000190734863
12.482500076293945
12.390000343322754
12.369999885559082
12.055000305175781
12.694999694824219
12.467499732971191
12.697500228881836
12.890000343322754
13.052499771118164
12.529999732971191
11.8100004196167
13.362500190734863
12.912500381469727
12.367500305175781
12.84000015258789
13.7524995803833
13.857500076293945
12.079999923706055
12.619999885559082
13.515000343322754
13.242500305175781
14.050000190734863
14.630000114440918
14.079999923706055
14.109999656677246
13.8100004196167
12.692500114440918
12.34000015258789
14.640000343322754
13.797499656677246
12.862500190734863
12.859999656677246
12.430000305175781
13.362500190734863
12.532500267028809
12.357500076293945
13.957500457763672
14.069999694824219
14.367500305175781
14.029999732971191
13.9975004196167
14.364999771118164
14.682499885559082
14.192500114440918
13.3100004196167
13.779999732971191
13.135000228881836
14.52750015258789
14.149999618530273
13.867500305175781
13.832500457763672
13.824999809265137
14.662500381469727
13.555000305175781
13.729999542236328
14.412500381469727
13.78499984741211
13.920000076293945
14.3125
13.657500267028809
14.100000381469727
16.010000228881836
14.422499656677246
14.032500267028809
14.595000267028809
14.675000190734863
14.074999809265137
13.824999809265137
13.192500114440918
14.649999618530273
14.729999542236328
14.015000343322754
13.572500228881836
13.582500457763672
12.40999984741211
12.702500343322754
12.947500228881836
12.319999694824219
12.71500015258789
13.220000267028809
13.600000381469727
14.2524995803833
15.082500457763672
15.172499656677246
14.1899995803833
15.114999771118164
15.917499542236328
14.657500267028809
13.914999961853027
15.614999771118164
14.977499961853027
13.682499885559082
15.047499656677246
16.959999084472656
16.78499984741211
16.375
15.037500381469727
14.890000343322754
15.324999809265137
15.982500076293945
16.549999237060547
16.31999969482422
15.572500228881836
15.1225004196167
14.4350004196167
14.9399995803833
15.3774995803833
15.322500228881836
16.34749984741211
16.22249984741211
15.137499809265137
14.829999923706055
16.309999465942383
16.752500534057617
15.802499771118164
15.917499542236328
16.97249984741211
17.924999237060547
17.690000534057617
17.59749984741211
17.822500228881836
17.235000610351562
17.227500915527344
17.719999313354492
17.889999389648438
17.1200008392334
16.9325008392334
16.40999984741211
18.135000228881836
17.762500762939453
16.447500228881836
17.485000610351562
18.559999465942383
17.514999389648438
16.270000457763672
16.792499542236328
16.8125
16.77750015258789
16.787500381469727
17.559999465942383
17.774999618530273
17.209999084472656
16.674999237060547
16.885000228881836
16.36750030517578
16.897499084472656
17.3174991607666
16.75
16.93000030517578
17.452499389648438
16.764999389648438
16.924999237060547
17.047500610351562
17.727500915527344
17.297500610351562
17.0674991607666
17.977500915527344
18.412500381469727
18.3700008392334
18.030000686645508
17.417499542236328
17.329999923706055
17.459999084472656
16.799999237060547
17.125
16.94499969482422
16.952499389648438
17.872499465942383
17.487499237060547
17.1299991607666
18.184999465942383
18.357500076293945
17.920000076293945
18.010000228881836
18.792499542236328
18.2549991607666
16.354999542236328
16.4325008392334
17.459999084472656
17.9375
17.905000686645508
18.752500534057617
19.832500457763672
19.325000762939453
18.5049991607666
17.25749969482422
18.052499771118164
19.520000457763672
19.02750015258789
18.165000915527344
17.6299991607666
18.434999465942383
18.68000030517578
17.962499618530273
18.50749969482422
17.959999084472656
17.657499313354492
17.8174991607666
17.122499465942383
17.31999969482422
18.219999313354492
18.197500228881836
17.989999771118164
17.280000686645508
15.899999618530273
16.11750030517578
16.482500076293945
17.645000457763672
18.71500015258789
17.920000076293945
18.625
18.1825008392334
18.27750015258789
18.729999542236328
19.334999084472656
18.752500534057617
18.8174991607666
19.670000076293945
20.59000015258789
20.332500457763672
19.707500457763672
19.584999084472656
19.479999542236328
19.489999771118164
19.84000015258789
20.639999389648438
20.334999084472656
19.977500915527344
20.270000457763672
20.227500915527344
19.21500015258789
19.174999237060547
20.11750030517578
20.677499771118164
19.702499389648438
19.635000228881836
19.8700008392334
20.489999771118164
20.985000610351562
19.2450008392334
18.717500686645508
19.36750030517578
19.357500076293945
18.622499465942383
19.197500228881836
19.239999771118164
18.979999542236328
19.787500381469727
19.3125
19.614999771118164
20.302499771118164
20.315000534057617
20.032499313354492
19.532499313354492
19.440000534057617
19.61750030517578
19.362499237060547
19.46500015258789
19.264999389648438
20.177499771118164
19.77750015258789
19.702499389648438
19.747499465942383
19.270000457763672
20.03499984741211
20.3125
21.032499313354492
20.979999542236328
19.329999923706055
19.184999465942383
20.8799991607666
20.104999542236328
18.877500534057617
20.6200008392334
21.02750015258789
20.635000228881836
19.9424991607666
19.1200008392334
19.030000686645508
19.97249984741211
19.667499542236328
18.732500076293945
20.017499923706055
19.799999237060547
19.74250030517578
20.357500076293945
20.127500534057617
19.872499465942383
20.165000915527344
19.354999542236328
20.042499542236328
20.729999542236328
22.022499084472656
21.415000915527344
19.532499313354492
20.125
21.047500610351562
20.469999313354492
20.760000228881836
20.61750030517578
19.815000534057617
19.7450008392334
19.912500381469727
20.100000381469727
21.584999084472656
21.485000610351562
20.22249984741211
20.282499313354492
19.447500228881836
19.860000610351562
19.604999542236328
19.602500915527344
20.170000076293945
20.172500610351562
20.514999389648438
20.752500534057617
20.93000030517578
20.017499923706055
19.862499237060547
19.94499969482422
19.522499084472656
19.459999084472656
19.834999084472656
20.125
20.582500457763672
19.649999618530273
20.350000381469727
21.604999542236328
21.584999084472656
21.157499313354492
21.532499313354492
20.292499542236328
20.24250030517578
19.684999465942383
19.375
20.267499923706055
20.09749984741211
19.99250030517578
19.100000381469727
18.88249969482422
18.647499084472656
18.65999984741211
19.252500534057617
19.412500381469727
19.292499542236328
19.09749984741211
19.565000534057617
19.642499923706055
20.434999465942383
19.684999465942383
18.247499465942383
19.19499969482422
19.954999923706055
19.670000076293945
18.875
18.829999923706055
19.665000915527344
20.079999923706055
19.924999237060547
20.09000015258789
20.86750030517578
20.510000228881836
20.239999771118164
20.387500762939453
20.512500762939453
21.0049991607666
21.399999618530273
20.80500030517578
20.782499313354492
20.512500762939453
18.927499771118164
17.997499465942383
17.917499542236328
18.635000228881836
17.02750015258789
14.770000457763672
15.029999732971191
13.979999542236328
13.925000190734863
14.977499961853027
15.757499694824219
14.824999809265137
13.239999771118164
13.904999732971191
15.680000305175781
14.854999542236328
16.540000915527344
14.4975004196167
14.307499885559082
14.9375
15.135000228881836
14.842499732971191
15.055000305175781
16.47249984741211
17.342500686645508
17.362499237060547
17.059999465942383
17.03499984741211
17.782499313354492
18.207500457763672
17.607500076293945
18.59749984741211
17.959999084472656
16.864999771118164
17.44499969482422
17.99250030517578
18.219999313354492
18.28499984741211
18.635000228881836
18.03499984741211
18.540000915527344
19.127500534057617
19.3174991607666
19.517499923706055
18.739999771118164
18.959999084472656
18.657499313354492
17.719999313354492
17.467500686645508
17.545000076293945
16.889999389648438
17.112499237060547
16.852500915527344
16.739999771118164
19.190000534057617
19.719999313354492
18.627500534057617
18.332500457763672
18.9375
18.907499313354492
19.292499542236328
18.362499237060547
18.829999923706055
19.667499542236328
20.729999542236328
20.612499237060547
20.399999618530273
20.392499923706055
20.46500015258789
20.809999465942383
21.112499237060547
21.1299991607666
21.872499465942383
21.4375
21.235000610351562
22.0575008392334
21.15250015258789
21.309999465942383
21.3700008392334
22.107500076293945
22.53499984741211
22.237499237060547
22.790000915527344
22.922500610351562
22.372499465942383
21.917499542236328
22.844999313354492
23.212499618530273
23.282499313354492
23.3174991607666
23.614999771118164
22.872499465942383
21.952499389648438
22.2450008392334
22.837499618530273
22.489999771118164
21.947500228881836
21.957500457763672
22.1825008392334
22.149999618530273
21.635000228881836
21.967500686645508
22.3700008392334
22.625
23.375
23.729999542236328
23.174999237060547
22.299999237060547
21.032499313354492
21.614999771118164
22.540000915527344
23.987499237060547
23.889999389648438
22.315000534057617
22.700000762939453
22.02750015258789
21.520000457763672
21.899999618530273
22.8799991607666
21.815000534057617
22.59000015258789
22.3174991607666
21.797500610351562
21.997499465942383
21.952499389648438
21.4325008392334
21.377500534057617
21.375
22.079999923706055
22.3700008392334
21.774999618530273
21.997499465942383
21.13249969482422
20.412500381469727
21.072500228881836
20.247499465942383
20.559999465942383
21.497499465942383
22.530000686645508
22.1825008392334
21.892499923706055
21.93000030517578
21.737499237060547
21.149999618530273
21.875
21.5674991607666
21.25749969482422
20.329999923706055
20.947500228881836
20.832500457763672
20.190000534057617
21.642499923706055
21.8174991607666
21.6924991607666
21.697500228881836
21.1299991607666
20.457500457763672
20.987499237060547
21.625
21.040000915527344
20.31999969482422
20.315000534057617
20.297500610351562
20.587499618530273
22.209999084472656
22.6924991607666
22.209999084472656
21.700000762939453
21.177499771118164
22.022499084472656
22.407499313354492
21.885000228881836
21.27750015258789
20.010000228881836
20.252500534057617
21.075000762939453
22.707500457763672
23.170000076293945
22.094999313354492
20.977500915527344
21.454999923706055
21.735000610351562
21.497499465942383
21.11750030517578
21.327499389648438
22.162500381469727
21.99250030517578
21.8799991607666
22.03499984741211
21.5575008392334
20.55500030517578
19.940000534057617
21.642499923706055
21.100000381469727
21.204999923706055
21.2450008392334
21.204999923706055
22.885000228881836
22.84000015258789
22.514999389648438
20.947500228881836
21.795000076293945
21.8799991607666
21.795000076293945
22.280000686645508
22.25
21.207500457763672
22.00749969482422
22.4375
21.922500610351562
22.96500015258789
23.094999313354492
22.670000076293945
22.709999084472656
21.782499313354492
21.040000915527344
21.84000015258789
22.172500610351562
22.3075008392334
20.875
21.332500457763672
21.9424991607666
22.482500076293945
21.854999542236328
21.764999389648438
21.657499313354492
22.892499923706055
23.782499313354492
22.915000915527344
21.424999237060547
22.549999237060547
22.75
23.00749969482422
22.024999618530273
22.459999084472656
23.15999984741211
23.424999237060547
24.517499923706055
24.3700008392334
23.954999923706055
23.592500686645508
23.895000457763672
23.040000915527344
23.267499923706055
22.532499313354492
23.549999237060547
23.0674991607666
22.459999084472656
22.22249984741211
23.149999618530273
23.102500915527344
21.697500228881836
22.0
23.387500762939453
23.157499313354492
22.377500534057617
21.65999984741211
22.482500076293945
23.0
22.447500228881836
22.427499771118164
22.377500534057617
22.72249984741211
22.607500076293945
22.88249969482422
23.217500686645508
21.899999618530273
20.752500534057617
22.112499237060547
23.424999237060547
23.8799991607666
23.917499542236328
24.174999237060547
24.5
25.385000228881836
24.520000457763672
23.790000915527344
22.467500686645508
22.9950008392334
22.15250015258789
21.387500762939453
21.760000228881836
23.372499465942383
24.014999389648438
23.217500686645508
22.977500915527344
22.857500076293945
23.18000030517578
24.40250015258789
24.2549991607666
24.147499084472656
23.112499237060547
22.7450008392334
23.295000076293945
23.237499237060547
23.53499984741211
24.107500076293945
23.4424991607666
22.907499313354492
23.649999618530273
24.114999771118164
23.582500457763672
23.889999389648438
23.61750030517578
24.325000762939453
24.917499542236328
23.662500381469727
22.645000457763672
23.077499389648438
24.34749984741211
24.100000381469727
23.395000457763672
23.24250030517578
22.957500457763672
22.772499084472656
23.209999084472656
22.88249969482422
22.677499771118164
22.72249984741211
22.63249969482422
22.155000686645508
22.020000457763672
22.197500228881836
22.0674991607666
22.719999313354492
23.31999969482422
24.21500015258789
23.625
23.792499542236328
25.045000076293945
24.334999084472656
22.75749969482422
23.517499923706055
23.707500457763672
23.0049991607666
21.447500228881836
22.38249969482422
22.3075008392334
22.6299991607666
22.857500076293945
22.967500686645508
23.110000610351562
22.31999969482422
21.332500457763672
20.922500610351562
22.020000457763672
21.8075008392334
22.372499465942383
22.725000381469727
23.797500610351562
23.022499084472656
23.600000381469727
23.917499542236328
24.3799991607666
25.024999618530273
25.3174991607666
25.482500076293945
24.517499923706055
24.469999313354492
23.072500228881836
23.137500762939453
22.770000457763672
21.860000610351562
21.565000534057617
21.329999923706055
21.649999618530273
22.077499389648438
22.90250015258789
22.625
23.74250030517578
24.53499984741211
23.735000610351562
23.252500534057617
23.735000610351562
24.297500610351562
24.467500686645508
24.44499969482422
24.670000076293945
24.2450008392334
25.092500686645508
24.545000076293945
23.8700008392334
23.395000457763672
22.780000686645508
22.860000610351562
24.177499771118164
23.920000076293945
24.00749969482422
23.342500686645508
23.725000381469727
23.392499923706055
22.764999389648438
23.762500762939453
23.207500457763672
23.024999618530273
22.815000534057617
22.332500457763672
22.997499465942383
23.479999542236328
24.350000381469727
24.377500534057617
23.5674991607666
23.547500610351562
24.290000915527344
22.549999237060547
21.592500686645508
22.3799991607666
23.802499771118164
23.184999465942383
22.075000762939453
23.297500610351562
23.2549991607666
23.522499084472656
24.049999237060547
24.11750030517578
24.462499618530273
24.415000915527344
24.237499237060547
24.344999313354492
23.334999084472656
24.1875
25.014999389648438
24.84749984741211
24.857500076293945
24.822500228881836
24.625
23.497499465942383
23.96500015258789
24.360000610351562
24.729999542236328
25.094999313354492
23.447500228881836
23.815000534057617
24.732500076293945
24.767499923706055
23.520000457763672
23.772499084472656
24.872499465942383
25.082500457763672
24.260000228881836
23.149999618530273
24.032499313354492
24.0674991607666
23.815000534057617
23.407499313354492
24.03499984741211
24.485000610351562
24.65999984741211
24.8174991607666
25.677499771118164
24.47249984741211
23.3174991607666
23.092500686645508
22.854999542236328
23.780000686645508
23.592500686645508
24.065000534057617
24.05500030517578
23.329999923706055
24.30500030517578
24.467500686645508
24.052499771118164
23.572500228881836
22.170000076293945
22.354999542236328
22.2450008392334
22.712499618530273
22.797500610351562
22.352500915527344
21.47249984741211
22.549999237060547
23.487499237060547
24.334999084472656
24.040000915527344
23.450000762939453
23.389999389648438
24.247499465942383
23.27750015258789
23.232500076293945
23.434999465942383
23.15999984741211
23.202499389648438
22.772499084472656
22.795000076293945
23.047500610351562
22.8075008392334
23.520000457763672
23.357500076293945
21.8174991607666
20.967500686645508
21.204999923706055
22.739999771118164
23.280000686645508
23.030000686645508
23.272499084472656
23.1200008392334
21.3125
21.0049991607666
21.9424991607666
21.982500076293945
22.677499771118164
23.790000915527344
23.4325008392334
21.577499389648438
20.829999923706055
21.4325008392334
22.084999084472656
22.237499237060547
23.177499771118164
23.114999771118164
23.832500457763672
23.642499923706055
22.737499237060547
21.6924991607666
21.282499313354492
21.362499237060547
22.065000534057617
22.47249984741211
22.637500762939453
22.49250030517578
23.15999984741211
23.642499923706055
23.417499542236328
23.014999389648438
23.59000015258789
23.697500228881836
23.102500915527344
22.537500381469727
24.052499771118164
24.397499084472656
23.155000686645508
22.645000457763672
23.190000534057617
22.112499237060547
22.90250015258789
22.899999618530273
24.25
24.332500457763672
23.3174991607666
22.225000381469727
22.684999465942383
23.53499984741211
24.729999542236328
23.497499465942383
23.100000381469727
23.022499084472656
24.862499237060547
25.292499542236328
24.2450008392334
23.34749984741211
22.952499389648438
22.787500381469727
22.86750030517578
23.357500076293945
24.662500381469727
24.5049991607666
24.684999465942383
24.545000076293945
23.770000457763672
23.502500534057617
23.06999969482422
21.712499618530273
21.8174991607666
22.735000610351562
24.19499969482422
24.372499465942383
23.030000686645508
21.94499969482422
23.020000457763672
22.780000686645508
23.36750030517578
23.177499771118164
22.732500076293945
21.885000228881836
21.022499084472656
21.752500534057617
23.1200008392334
23.122499465942383
22.674999237060547
22.674999237060547
22.094999313354492
21.832500457763672
22.572500228881836
21.922500610351562
22.559999465942383
24.045000076293945
22.799999237060547
21.084999084472656
21.072500228881836
21.5674991607666
22.587499618530273
22.717500686645508
22.040000915527344
21.392499923706055
22.459999084472656
22.594999313354492
22.862499237060547
22.697500228881836
22.924999237060547
22.375
23.655000686645508
24.30500030517578
24.297500610351562
23.860000610351562
23.200000762939453
23.8125
23.415000915527344
23.940000534057617
24.327499389648438
23.94499969482422
23.614999771118164
24.087499618530273
23.90999984741211
24.350000381469727
24.74250030517578
24.702499389648438
23.864999771118164
23.217500686645508
23.520000457763672
24.350000381469727
24.427499771118164
24.280000686645508
24.302499771118164
24.412500381469727
24.592500686645508
24.047500610351562
22.639999389648438
22.0
22.862499237060547
23.22249984741211
22.962499618530273
22.422500610351562
23.55500030517578
23.762500762939453
24.440000534057617
24.032499313354492
23.575000762939453
23.78499984741211
23.764999389648438
23.6924991607666
24.037500381469727
25.18000030517578
24.9950008392334
25.077499389648438
25.917499542236328
25.030000686645508
24.075000762939453
24.11750030517578
24.127500534057617
24.165000915527344
24.104999542236328
24.0674991607666
23.5625
22.892499923706055
23.282499313354492
24.3075008392334
24.399999618530273
25.9325008392334
24.924999237060547
25.172500610351562
23.90999984741211
24.162500381469727
23.69499969482422
24.100000381469727
23.93000030517578
23.600000381469727
24.497499465942383
25.322500228881836
25.15250015258789
25.075000762939453
24.4424991607666
24.184999465942383
24.739999771118164
25.385000228881836
25.100000381469727
23.907499313354492
24.217500686645508
25.399999618530273
24.657499313354492
24.22249984741211
24.469999313354492
23.84000015258789
23.292499542236328
23.385000228881836
23.707500457763672
23.885000228881836
23.684999465942383
24.462499618530273
24.81999969482422
24.137500762939453
23.422500610351562
23.97249984741211
24.90250015258789
24.827499389648438
23.7450008392334
23.417499542236328
23.622499465942383
23.65999984741211
23.90250015258789
24.202499389648438
24.392499923706055
24.667499542236328
22.584999084472656
22.127500534057617
22.809999465942383
23.290000915527344
22.982500076293945
22.665000915527344
22.077499389648438
21.782499313354492
22.002500534057617
23.405000686645508
23.969999313354492
23.78499984741211
24.114999771118164
23.987499237060547
24.274999618530273
23.547500610351562
23.38249969482422
23.59749984741211
24.967500686645508
24.770000457763672
24.43000030517578
24.8125
24.107500076293945
24.147499084472656
23.719999313354492
23.40250015258789
23.885000228881836
23.94499969482422
24.395000457763672
24.989999771118164
25.889999389648438
25.15999984741211
24.399999618530273
23.822500228881836
23.147499084472656
22.962499618530273
23.547500610351562
23.579999923706055
23.892499923706055
23.600000381469727
24.0575008392334
23.94499969482422
24.469999313354492
24.600000381469727
25.354999542236328
25.392499923706055
25.457500457763672
24.024999618530273
23.5049991607666
24.290000915527344
24.857500076293945
24.832500457763672
24.287500381469727
24.53499984741211
24.4424991607666
24.045000076293945
23.592500686645508
22.6875
23.09000015258789
23.827499389648438
24.475000381469727
24.087499618530273
24.0674991607666
24.022499084472656
23.662500381469727
22.582500457763672
21.309999465942383
21.575000762939453
22.36750030517578
23.7450008392334
23.1825008392334
23.862499237060547
24.052499771118164
24.72249984741211
24.69499969482422
24.475000381469727
24.165000915527344
25.037500381469727
24.377500534057617
24.047500610351562
22.80500030517578
23.5
23.657499313354492
23.252500534057617
22.727500915527344
22.959999084472656
22.96500015258789
23.155000686645508
22.635000228881836
22.8174991607666
22.5575008392334
24.6825008392334
24.5049991607666
25.084999084472656
25.6299991607666
25.162500381469727
23.959999084472656
23.922500610351562
23.607500076293945
24.1875
24.577499389648438
25.485000610351562
25.229999542236328
24.282499313354492
24.00749969482422
23.677499771118164
23.962499618530273
23.649999618530273
22.655000686645508
23.197500228881836
24.049999237060547
24.145000457763672
24.677499771118164
24.639999389648438
24.924999237060547
24.625
24.592500686645508
25.049999237060547
24.725000381469727
24.71500015258789
24.452499389648438
25.25
25.047500610351562
23.78499984741211
24.395000457763672
24.940000534057617
25.350000381469727
25.337499618530273
24.637500762939453
24.719999313354492
24.1875
24.002500534057617
24.360000610351562
24.43000030517578
24.637500762939453
24.520000457763672
25.0674991607666
25.424999237060547
26.532499313354492
26.809999465942383
27.405000686645508
26.385000228881836
25.774999618530273
25.844999313354492
25.424999237060547
26.405000686645508
27.017499923706055
26.670000076293945
25.170000076293945
23.907499313354492
23.68000030517578
24.412500381469727
25.05500030517578
24.30500030517578
23.677499771118164
24.122499465942383
25.147499084472656
26.127500534057617
25.02750015258789
24.322500228881836
24.982500076293945
24.832500457763672
25.174999237060547
24.5575008392334
25.075000762939453
25.34749984741211
25.822500228881836
25.137500762939453
24.90999984741211
24.584999084472656
24.295000076293945
24.5625
24.59000015258789
25.614999771118164
25.952499389648438
26.040000915527344
25.142499923706055
25.155000686645508
24.872499465942383
25.012500762939453
25.15250015258789
25.729999542236328
26.204999923706055
26.610000610351562
25.975000381469727
25.565000534057617
25.28499984741211
25.81999969482422
25.354999542236328
25.827499389648438
26.232500076293945
26.204999923706055
26.262500762939453
25.802499771118164
25.592500686645508
25.537500381469727
25.547500610351562
24.897499084472656
24.957500457763672
24.604999542236328
23.897499084472656
24.299999237060547
24.239999771118164
24.772499084472656
24.522499084472656
23.934999465942383
25.71500015258789
25.954999923706055
26.610000610351562
27.155000686645508
26.575000762939453
25.392499923706055
25.102500915527344
24.690000534057617
25.022499084472656
25.282499313354492
26.639999389648438
27.082500457763672
28.584999084472656
28.114999771118164
26.200000762939453
24.81999969482422
25.327499389648438
26.212499618530273
25.625
25.434999465942383
26.292499542236328
26.3700008392334
25.662500381469727
25.96500015258789
25.59000015258789
25.127500534057617
25.202499389648438
