EpRewMean
1.3953487873077393
1.4500000476837158
1.475000023841858
1.350000023841858
1.475000023841858
1.774999976158142
1.4249999523162842
1.75
1.8250000476837158
1.475000023841858
1.649999976158142
1.875
1.725000023841858
1.75
1.774999976158142
1.6749999523162842
1.600000023841858
1.7999999523162842
1.850000023841858
1.9249999523162842
1.5499999523162842
1.9500000476837158
1.899999976158142
2.1500000953674316
1.774999976158142
2.2750000953674316
2.2750000953674316
2.0999999046325684
1.774999976158142
1.875
1.7999999523162842
2.2750000953674316
2.0250000953674316
2.25
2.5250000953674316
2.5250000953674316
2.875
3.0999999046325684
2.924999952316284
3.5999999046325684
3.4749999046325684
3.375
3.9000000953674316
3.549999952316284
3.2249999046325684
3.7750000953674316
3.924999952316284
3.9000000953674316
3.5999999046325684
3.700000047683716
4.150000095367432
3.6500000953674316
3.924999952316284
4.324999809265137
3.7249999046325684
4.0
4.199999809265137
4.0
4.150000095367432
3.9000000953674316
4.074999809265137
3.950000047683716
4.375
4.025000095367432
4.224999904632568
4.449999809265137
3.9000000953674316
4.099999904632568
4.0
4.199999809265137
4.425000190734863
4.224999904632568
4.849999904632568
3.9749999046325684
4.300000190734863
4.574999809265137
4.724999904632568
4.125
4.599999904632568
4.599999904632568
4.775000095367432
4.25
4.675000190734863
4.425000190734863
4.5
4.349999904632568
4.824999809265137
4.574999809265137
4.474999904632568
4.650000095367432
4.275000095367432
4.275000095367432
4.574999809265137
4.699999809265137
4.199999809265137
4.25
4.525000095367432
4.224999904632568
4.050000190734863
4.349999904632568
4.550000190734863
4.275000095367432
4.449999809265137
4.824999809265137
4.675000190734863
4.949999809265137
4.675000190734863
4.525000095367432
4.574999809265137
4.275000095367432
4.974999904632568
4.599999904632568
4.650000095367432
4.400000095367432
4.375
4.675000190734863
3.9749999046325684
5.224999904632568
4.925000190734863
4.949999809265137
4.900000095367432
4.824999809265137
4.900000095367432
4.550000190734863
4.875
4.474999904632568
4.650000095367432
4.875
5.425000190734863
4.775000095367432
4.5
4.375
4.875
4.949999809265137
4.925000190734863
5.275000095367432
5.599999904632568
5.150000095367432
5.099999904632568
4.875
5.0
4.849999904632568
4.375
4.199999809265137
4.574999809265137
5.0
4.699999809265137
4.25
4.724999904632568
4.925000190734863
5.074999809265137
4.800000190734863
5.0
4.925000190734863
4.875
4.650000095367432
4.574999809265137
5.099999904632568
4.974999904632568
4.75
4.375
4.375
4.625
5.050000190734863
4.900000095367432
4.824999809265137
5.675000190734863
5.349999904632568
5.074999809265137
4.974999904632568
5.25
4.724999904632568
4.650000095367432
4.875
5.125
5.675000190734863
5.25
5.449999809265137
5.275000095367432
5.449999809265137
5.650000095367432
5.625
5.275000095367432
5.324999809265137
4.925000190734863
5.650000095367432
5.625
5.175000190734863
5.375
5.900000095367432
5.800000190734863
5.699999809265137
5.400000095367432
5.449999809265137
5.775000095367432
5.525000095367432
5.574999809265137
5.875
6.0
5.025000095367432
5.650000095367432
5.875
5.949999809265137
5.474999904632568
6.025000095367432
5.925000190734863
5.324999809265137
6.150000095367432
6.0
5.800000190734863
5.625
5.925000190734863
6.125
5.900000095367432
5.824999809265137
5.775000095367432
5.724999904632568
6.0
6.099999904632568
5.724999904632568
5.824999809265137
6.324999809265137
6.025000095367432
5.724999904632568
5.925000190734863
5.574999809265137
5.599999904632568
5.824999809265137
6.0
6.400000095367432
6.400000095367432
5.974999904632568
5.849999904632568
6.099999904632568
6.349999904632568
6.25
6.224999904632568
6.599999904632568
6.074999809265137
5.900000095367432
6.75
6.5
6.25
6.300000190734863
6.449999809265137
6.275000095367432
6.699999809265137
6.449999809265137
6.599999904632568
6.599999904632568
6.75
6.599999904632568
6.574999809265137
6.275000095367432
6.875
6.349999904632568
6.699999809265137
6.675000190734863
6.574999809265137
6.275000095367432
6.824999809265137
6.775000095367432
7.224999904632568
6.675000190734863
6.925000190734863
7.025000095367432
7.199999809265137
6.650000095367432
7.150000095367432
7.224999904632568
7.175000190734863
7.349999904632568
7.125
7.474999904632568
6.925000190734863
7.375
7.300000190734863
6.574999809265137
7.074999809265137
7.050000190734863
7.574999809265137
7.099999904632568
7.525000095367432
7.425000190734863
6.925000190734863
7.150000095367432
7.0
7.175000190734863
7.675000190734863
7.699999809265137
7.300000190734863
7.275000095367432
7.5
7.400000095367432
7.425000190734863
7.675000190734863
7.224999904632568
7.925000190734863
8.0
7.599999904632568
7.449999809265137
7.375
7.324999809265137
7.425000190734863
7.900000095367432
7.625
7.849999904632568
7.550000190734863
7.025000095367432
7.625
7.5
7.699999809265137
7.400000095367432
7.5
8.225000381469727
7.849999904632568
7.849999904632568
7.849999904632568
7.849999904632568
7.574999809265137
8.074999809265137
7.875
7.75
7.974999904632568
7.949999809265137
7.574999809265137
7.900000095367432
7.5
7.474999904632568
7.699999809265137
7.775000095367432
8.0
7.824999809265137
8.100000381469727
8.149999618530273
8.0
7.900000095367432
8.25
8.175000190734863
7.974999904632568
8.225000381469727
7.699999809265137
8.175000190734863
8.399999618530273
8.225000381469727
8.050000190734863
8.225000381469727
8.324999809265137
8.199999809265137
8.0
8.524999618530273
8.25
7.949999809265137
8.100000381469727
8.199999809265137
8.024999618530273
8.5
8.274999618530273
8.324999809265137
8.175000190734863
8.274999618530273
8.149999618530273
8.550000190734863
8.300000190734863
8.274999618530273
8.199999809265137
7.925000190734863
8.475000381469727
8.350000381469727
8.774999618530273
8.475000381469727
8.25
8.350000381469727
8.574999809265137
8.324999809265137
8.475000381469727
8.449999809265137
8.274999618530273
8.25
8.300000190734863
8.399999618530273
8.274999618530273
8.324999809265137
8.475000381469727
8.425000190734863
8.675000190734863
8.975000381469727
8.550000190734863
8.300000190734863
8.75
8.600000381469727
8.5
8.399999618530273
8.649999618530273
8.449999809265137
8.625
8.475000381469727
8.274999618530273
8.800000190734863
8.774999618530273
8.774999618530273
8.675000190734863
8.675000190734863
8.925000190734863
8.425000190734863
8.675000190734863
8.925000190734863
8.975000381469727
8.824999809265137
8.675000190734863
8.625
8.475000381469727
8.949999809265137
8.699999809265137
9.074999809265137
8.800000190734863
8.850000381469727
8.774999618530273
8.875
8.875
8.875
8.774999618530273
8.975000381469727
8.449999809265137
8.649999618530273
8.850000381469727
8.800000190734863
8.824999809265137
8.350000381469727
8.800000190734863
8.725000381469727
8.800000190734863
8.850000381469727
8.649999618530273
8.524999618530273
9.0
8.75
8.300000190734863
8.899999618530273
9.149999618530273
8.725000381469727
8.899999618530273
9.050000190734863
8.699999809265137
8.600000381469727
8.875
9.100000381469727
8.75
8.975000381469727
8.675000190734863
8.774999618530273
8.625
8.925000190734863
8.774999618530273
8.975000381469727
8.875
8.875
8.524999618530273
9.125
8.975000381469727
8.675000190734863
8.899999618530273
8.824999809265137
8.675000190734863
9.050000190734863
8.925000190734863
8.875
8.75
8.800000190734863
8.850000381469727
9.050000190734863
8.975000381469727
8.75
8.649999618530273
9.125
8.699999809265137
8.875
9.100000381469727
8.774999618530273
8.899999618530273
8.875
8.824999809265137
9.024999618530273
8.875
8.925000190734863
9.024999618530273
8.875
8.850000381469727
8.975000381469727
9.199999809265137
9.0
9.125
8.824999809265137
8.975000381469727
9.100000381469727
8.949999809265137
9.024999618530273
9.274999618530273
8.899999618530273
9.050000190734863
8.875
9.074999809265137
8.949999809265137
9.149999618530273
8.975000381469727
9.074999809265137
9.199999809265137
9.100000381469727
8.899999618530273
8.824999809265137
8.899999618530273
9.5
8.975000381469727
9.050000190734863
8.975000381469727
8.625
9.175000190734863
9.125
9.125
8.975000381469727
9.274999618530273
9.225000381469727
8.949999809265137
9.149999618530273
9.074999809265137
9.375
9.199999809265137
9.574999809265137
9.274999618530273
9.199999809265137
8.850000381469727
9.25
9.199999809265137
9.199999809265137
9.475000381469727
9.0
8.949999809265137
9.100000381469727
9.274999618530273
9.175000190734863
9.199999809265137
9.175000190734863
8.975000381469727
9.125
9.175000190734863
9.300000190734863
9.175000190734863
9.300000190734863
9.225000381469727
9.149999618530273
9.074999809265137
9.074999809265137
9.225000381469727
9.375
9.0
9.050000190734863
9.399999618530273
9.300000190734863
9.25
9.199999809265137
9.175000190734863
9.25
9.225000381469727
9.399999618530273
9.350000381469727
9.300000190734863
9.350000381469727
9.125
9.175000190734863
9.300000190734863
9.25
9.199999809265137
9.300000190734863
9.300000190734863
8.925000190734863
9.274999618530273
9.100000381469727
9.074999809265137
9.449999809265137
9.449999809265137
9.425000190734863
9.300000190734863
9.375
9.125
9.199999809265137
9.324999809265137
9.274999618530273
9.175000190734863
9.324999809265137
9.25
9.350000381469727
9.5
9.274999618530273
9.350000381469727
9.175000190734863
9.399999618530273
9.324999809265137
9.399999618530273
9.149999618530273
9.350000381469727
9.25
9.149999618530273
9.100000381469727
9.375
9.175000190734863
9.449999809265137
9.324999809265137
9.050000190734863
9.350000381469727
9.199999809265137
9.300000190734863
9.175000190734863
9.475000381469727
9.149999618530273
9.574999809265137
9.425000190734863
9.550000190734863
9.300000190734863
9.5
9.5
9.475000381469727
9.25
9.324999809265137
9.274999618530273
9.399999618530273
9.524999618530273
9.399999618530273
9.149999618530273
9.375
9.425000190734863
9.5
9.350000381469727
9.574999809265137
9.574999809265137
9.25
9.449999809265137
9.274999618530273
9.074999809265137
9.199999809265137
9.300000190734863
9.324999809265137
9.199999809265137
9.475000381469727
9.274999618530273
9.199999809265137
9.350000381469727
9.350000381469727
9.175000190734863
9.375
9.375
9.350000381469727
9.300000190734863
9.350000381469727
9.125
9.350000381469727
9.199999809265137
9.449999809265137
9.600000381469727
9.274999618530273
9.574999809265137
9.300000190734863
9.324999809265137
9.300000190734863
9.550000190734863
9.625
9.125
9.375
9.600000381469727
9.375
9.100000381469727
9.375
9.300000190734863
9.574999809265137
9.199999809265137
9.425000190734863
9.300000190734863
9.425000190734863
9.350000381469727
9.399999618530273
9.425000190734863
9.25
9.350000381469727
9.475000381469727
9.350000381469727
9.175000190734863
9.550000190734863
9.175000190734863
9.399999618530273
9.550000190734863
9.5
9.449999809265137
9.050000190734863
9.350000381469727
9.300000190734863
9.475000381469727
9.399999618530273
9.449999809265137
9.350000381469727
9.5
9.449999809265137
9.425000190734863
9.300000190734863
9.350000381469727
9.425000190734863
9.100000381469727
9.425000190734863
9.274999618530273
9.350000381469727
9.175000190734863
9.175000190734863
9.449999809265137
9.149999618530273
9.300000190734863
9.175000190734863
9.399999618530273
9.449999809265137
9.324999809265137
9.625
9.350000381469727
9.574999809265137
9.399999618530273
9.225000381469727
9.425000190734863
9.375
9.350000381469727
9.225000381469727
9.125
9.399999618530273
9.324999809265137
9.399999618530273
9.425000190734863
9.449999809265137
9.5
9.300000190734863
9.475000381469727
9.475000381469727
9.300000190734863
9.600000381469727
9.324999809265137
9.600000381469727
9.449999809265137
9.625
9.399999618530273
9.399999618530273
9.425000190734863
9.350000381469727
9.399999618530273
9.600000381469727
9.25
9.274999618530273
9.375
9.300000190734863
9.550000190734863
9.25
9.274999618530273
9.449999809265137
9.5
9.425000190734863
9.675000190734863
9.5
9.25
9.324999809265137
9.25
9.399999618530273
9.5
9.5
9.5
9.699999809265137
9.350000381469727
9.675000190734863
9.399999618530273
9.625
9.425000190734863
9.625
9.425000190734863
9.375
9.550000190734863
9.399999618530273
9.425000190734863
9.449999809265137
9.449999809265137
9.425000190734863
9.375
9.399999618530273
9.399999618530273
9.574999809265137
9.574999809265137
9.475000381469727
9.375
9.550000190734863
9.125
9.399999618530273
9.375
9.225000381469727
9.25
9.649999618530273
9.524999618530273
9.550000190734863
9.449999809265137
9.399999618530273
9.425000190734863
9.324999809265137
9.475000381469727
9.449999809265137
9.449999809265137
9.574999809265137
9.5
9.449999809265137
9.524999618530273
9.550000190734863
9.449999809265137
9.300000190734863
9.550000190734863
9.274999618530273
9.5
9.574999809265137
9.399999618530273
9.725000381469727
9.475000381469727
9.524999618530273
9.574999809265137
9.449999809265137
9.699999809265137
9.425000190734863
9.574999809265137
9.550000190734863
9.300000190734863
9.574999809265137
9.425000190734863
9.625
9.524999618530273
9.449999809265137
9.649999618530273
9.625
9.475000381469727
9.574999809265137
9.5
9.625
9.425000190734863
9.524999618530273
9.649999618530273
9.550000190734863
9.649999618530273
9.449999809265137
9.675000190734863
9.574999809265137
9.300000190734863
9.5
9.524999618530273
9.550000190734863
9.675000190734863
9.375
9.574999809265137
9.600000381469727
9.574999809265137
9.350000381469727
9.675000190734863
9.475000381469727
9.5
9.524999618530273
9.550000190734863
9.300000190734863
9.425000190734863
9.524999618530273
9.300000190734863
9.449999809265137
9.725000381469727
9.600000381469727
9.600000381469727
9.5
9.449999809265137
9.550000190734863
9.475000381469727
9.600000381469727
9.675000190734863
9.675000190734863
9.5
9.550000190734863
9.600000381469727
9.449999809265137
9.524999618530273
9.600000381469727
9.399999618530273
9.675000190734863
9.625
9.675000190734863
9.600000381469727
9.5
9.550000190734863
9.524999618530273
9.625
9.550000190734863
9.649999618530273
9.600000381469727
9.5
9.5
9.524999618530273
9.449999809265137
9.675000190734863
9.524999618530273
9.600000381469727
9.475000381469727
9.574999809265137
9.475000381469727
9.675000190734863
9.375
9.625
9.5
9.649999618530273
9.600000381469727
9.600000381469727
9.625
9.600000381469727
9.449999809265137
9.625
9.625
9.574999809265137
9.725000381469727
9.725000381469727
9.550000190734863
9.550000190734863
9.524999618530273
9.550000190734863
9.524999618530273
9.725000381469727
9.524999618530273
9.300000190734863
9.375
9.550000190734863
9.625
9.5
9.425000190734863
9.274999618530273
9.5
9.475000381469727
9.524999618530273
9.5
9.625
9.350000381469727
9.574999809265137
9.375
9.524999618530273
9.625
9.550000190734863
9.550000190734863
9.574999809265137
9.5
9.649999618530273
9.600000381469727
9.524999618530273
9.550000190734863
9.725000381469727
9.675000190734863
9.574999809265137
9.725000381469727
9.350000381469727
9.5
9.649999618530273
9.5
9.550000190734863
9.550000190734863
9.449999809265137
9.475000381469727
9.675000190734863
9.274999618530273
9.699999809265137
9.524999618530273
9.824999809265137
9.449999809265137
9.625
9.625
9.550000190734863
9.649999618530273
9.449999809265137
9.75
9.699999809265137
9.449999809265137
9.475000381469727
9.675000190734863
9.524999618530273
9.574999809265137
9.574999809265137
9.574999809265137
9.550000190734863
9.75
9.600000381469727
9.524999618530273
9.649999618530273
9.574999809265137
9.600000381469727
9.649999618530273
9.774999618530273
9.699999809265137
9.5
9.449999809265137
9.324999809265137
9.675000190734863
9.425000190734863
9.625
9.449999809265137
9.550000190734863
9.600000381469727
9.550000190734863
9.5
9.625
9.600000381469727
9.574999809265137
9.524999618530273
9.475000381469727
9.574999809265137
9.449999809265137
9.625
9.75
9.475000381469727
9.550000190734863
9.649999618530273
9.574999809265137
9.550000190734863
9.675000190734863
9.649999618530273
9.649999618530273
9.475000381469727
9.800000190734863
9.649999618530273
9.5
9.574999809265137
9.649999618530273
9.725000381469727
9.625
9.550000190734863
9.725000381469727
9.600000381469727
9.574999809265137
9.524999618530273
9.550000190734863
9.475000381469727
9.475000381469727
9.725000381469727
9.449999809265137
9.699999809265137
9.699999809265137
9.675000190734863
9.425000190734863
9.649999618530273
9.574999809265137
9.675000190734863
9.75
9.550000190734863
9.375
9.600000381469727
9.449999809265137
9.600000381469727
9.675000190734863
9.675000190734863
9.600000381469727
9.399999618530273
9.625
9.725000381469727
9.725000381469727
9.425000190734863
9.725000381469727
9.625
9.574999809265137
9.524999618530273
9.649999618530273
9.675000190734863
9.600000381469727
9.524999618530273
9.524999618530273
9.625
9.524999618530273
9.824999809265137
9.649999618530273
9.774999618530273
9.725000381469727
9.75
9.699999809265137
9.75
9.625
9.625
9.449999809265137
9.649999618530273
9.625
9.625
9.574999809265137
9.725000381469727
9.399999618530273
9.675000190734863
9.675000190734863
9.5
9.5
9.649999618530273
9.5
9.725000381469727
9.475000381469727
9.875
9.725000381469727
9.600000381469727
9.375
9.625
9.524999618530273
9.574999809265137
9.5
9.699999809265137
9.675000190734863
9.699999809265137
9.625
9.774999618530273
9.800000190734863
9.699999809265137
9.649999618530273
9.725000381469727
9.475000381469727
9.574999809265137
9.524999618530273
9.675000190734863
9.725000381469727
9.75
9.5
9.649999618530273
9.675000190734863
9.524999618530273
9.875
9.550000190734863
9.600000381469727
9.600000381469727
9.475000381469727
9.574999809265137
9.475000381469727
9.574999809265137
9.725000381469727
9.574999809265137
9.574999809265137
9.800000190734863
9.699999809265137
9.699999809265137
9.524999618530273
9.600000381469727
9.574999809265137
9.350000381469727
9.050000190734863
8.875
9.300000190734863
9.300000190734863
9.100000381469727
9.324999809265137
9.225000381469727
9.550000190734863
9.399999618530273
9.149999618530273
9.25
9.350000381469727
9.425000190734863
9.425000190734863
9.425000190734863
9.475000381469727
9.300000190734863
9.324999809265137
9.699999809265137
9.675000190734863
9.675000190734863
9.550000190734863
9.475000381469727
9.5
9.649999618530273
9.75
9.550000190734863
9.699999809265137
9.675000190734863
9.375
9.725000381469727
9.574999809265137
9.625
9.675000190734863
9.550000190734863
9.600000381469727
9.725000381469727
9.824999809265137
9.550000190734863
9.625
9.725000381469727
9.675000190734863
9.475000381469727
9.5
9.800000190734863
9.5
9.675000190734863
9.625
9.550000190734863
9.675000190734863
9.649999618530273
9.5
9.600000381469727
9.425000190734863
9.574999809265137
9.524999618530273
9.649999618530273
9.649999618530273
9.625
9.649999618530273
9.675000190734863
9.675000190734863
9.600000381469727
9.850000381469727
9.574999809265137
9.600000381469727
9.699999809265137
9.600000381469727
9.649999618530273
9.625
9.524999618530273
9.625
9.675000190734863
9.625
9.625
9.550000190734863
9.550000190734863
9.600000381469727
9.675000190734863
9.649999618530273
9.649999618530273
9.699999809265137
9.600000381469727
9.699999809265137
9.699999809265137
9.725000381469727
9.550000190734863
9.5
9.774999618530273
9.649999618530273
9.75
9.475000381469727
9.600000381469727
9.725000381469727
9.649999618530273
9.625
9.625
9.5
9.699999809265137
9.550000190734863
9.550000190734863
9.625
9.675000190734863
9.550000190734863
9.625
9.600000381469727
9.649999618530273
9.600000381469727
9.675000190734863
9.675000190734863
9.649999618530273
9.699999809265137
9.699999809265137
9.574999809265137
9.725000381469727
9.574999809265137
9.649999618530273
9.774999618530273
9.625
9.675000190734863
9.774999618530273
9.725000381469727
9.774999618530273
9.625
9.550000190734863
9.550000190734863
9.649999618530273
9.774999618530273
9.725000381469727
9.675000190734863
9.675000190734863
9.675000190734863
9.725000381469727
9.649999618530273
9.774999618530273
9.774999618530273
9.675000190734863
9.725000381469727
9.725000381469727
9.675000190734863
9.625
9.475000381469727
9.550000190734863
9.475000381469727
9.75
9.524999618530273
9.675000190734863
9.574999809265137
9.524999618530273
9.625
9.524999618530273
9.600000381469727
9.574999809265137
9.550000190734863
9.675000190734863
9.574999809265137
9.725000381469727
9.475000381469727
9.649999618530273
9.824999809265137
9.875
9.550000190734863
9.550000190734863
9.675000190734863
9.725000381469727
9.649999618530273
9.675000190734863
9.649999618530273
9.625
9.574999809265137
9.550000190734863
9.600000381469727
9.675000190734863
9.649999618530273
9.699999809265137
9.774999618530273
9.625
9.574999809265137
9.625
9.75
9.625
9.75
9.675000190734863
9.699999809265137
9.425000190734863
9.675000190734863
9.600000381469727
9.675000190734863
9.649999618530273
9.574999809265137
9.75
9.574999809265137
9.75
9.625
9.800000190734863
9.75
9.774999618530273
9.725000381469727
9.600000381469727
9.550000190734863
9.550000190734863
9.649999618530273
9.699999809265137
9.625
9.625
9.625
9.675000190734863
9.75
9.600000381469727
9.774999618530273
9.75
9.774999618530273
9.75
9.625
9.5
9.649999618530273
9.449999809265137
9.774999618530273
9.850000381469727
9.699999809265137
9.600000381469727
9.649999618530273
9.625
9.800000190734863
9.75
9.675000190734863
9.574999809265137
9.875
9.675000190734863
9.625
9.550000190734863
9.725000381469727
9.774999618530273
9.800000190734863
9.574999809265137
9.675000190734863
9.449999809265137
9.649999618530273
9.675000190734863
9.524999618530273
9.550000190734863
9.75
9.649999618530273
9.5
9.550000190734863
9.675000190734863
9.625
9.600000381469727
9.725000381469727
9.699999809265137
9.774999618530273
9.774999618530273
9.824999809265137
9.649999618530273
9.675000190734863
9.600000381469727
9.625
9.574999809265137
9.699999809265137
9.800000190734863
9.875
9.625
9.824999809265137
9.75
9.75
9.649999618530273
9.675000190734863
9.625
9.475000381469727
9.675000190734863
9.625
9.649999618530273
9.699999809265137
9.625
9.399999618530273
9.600000381469727
9.699999809265137
9.675000190734863
9.725000381469727
9.574999809265137
9.850000381469727
9.699999809265137
9.574999809265137
9.875
9.475000381469727
9.600000381469727
9.524999618530273
9.5
9.699999809265137
9.649999618530273
9.75
9.699999809265137
9.600000381469727
9.524999618530273
9.600000381469727
9.699999809265137
9.625
9.625
9.625
9.524999618530273
9.75
9.75
9.600000381469727
9.725000381469727
9.5
9.699999809265137
9.75
9.5
9.550000190734863
9.625
9.649999618530273
9.800000190734863
9.699999809265137
9.675000190734863
9.725000381469727
9.625
9.600000381469727
9.675000190734863
9.524999618530273
9.649999618530273
9.774999618530273
9.824999809265137
9.600000381469727
9.425000190734863
9.675000190734863
9.600000381469727
9.800000190734863
9.675000190734863
9.625
9.550000190734863
9.75
9.675000190734863
9.899999618530273
9.800000190734863
9.5
9.649999618530273
9.899999618530273
9.774999618530273
9.699999809265137
9.675000190734863
9.550000190734863
9.574999809265137
9.600000381469727
9.699999809265137
9.699999809265137
9.774999618530273
9.625
9.699999809265137
9.774999618530273
9.574999809265137
9.625
9.875
9.725000381469727
9.675000190734863
9.725000381469727
9.625
9.75
9.699999809265137
9.449999809265137
9.725000381469727
9.649999618530273
9.675000190734863
9.800000190734863
9.699999809265137
9.675000190734863
9.774999618530273
9.600000381469727
9.725000381469727
9.675000190734863
9.75
9.550000190734863
9.699999809265137
9.675000190734863
9.649999618530273
9.550000190734863
9.725000381469727
9.800000190734863
9.649999618530273
9.675000190734863
9.75
9.824999809265137
9.625
9.774999618530273
9.699999809265137
9.774999618530273
9.550000190734863
