EpRewMean
0.17000000178813934
0.18250000476837158
0.21250000596046448
0.2224999964237213
0.19499999284744263
0.2199999988079071
0.20999999344348907
0.16249999403953552
0.23999999463558197
0.20499999821186066
0.20000000298023224
0.23499999940395355
0.15000000596046448
0.24500000476837158
0.18250000476837158
0.17249999940395355
0.23250000178813934
0.2175000011920929
0.16750000417232513
0.1525000035762787
0.20749999582767487
0.24250000715255737
0.22499999403953552
0.18250000476837158
0.20999999344348907
0.2175000011920929
0.23499999940395355
0.1850000023841858
0.19499999284744263
0.20250000059604645
0.21250000596046448
0.16249999403953552
0.23250000178813934
0.20749999582767487
0.1875
0.23250000178813934
0.20999999344348907
0.26750001311302185
0.24500000476837158
0.2175000011920929
0.19499999284744263
0.24250000715255737
0.23499999940395355
0.20499999821186066
0.20000000298023224
0.2524999976158142
0.22499999403953552
0.1875
0.2150000035762787
0.25999999046325684
0.19750000536441803
0.1850000023841858
0.24250000715255737
0.23999999463558197
0.2150000035762787
0.19249999523162842
0.23499999940395355
0.2475000023841858
0.22499999403953552
0.2224999964237213
0.2175000011920929
0.2199999988079071
0.20499999821186066
0.2475000023841858
0.20999999344348907
0.2775000035762787
0.22750000655651093
0.2824999988079071
0.22750000655651093
0.2549999952316284
0.3449999988079071
0.3400000035762787
0.4350000023841858
0.46000000834465027
0.47999998927116394
0.5375000238418579
0.5375000238418579
0.5174999833106995
0.5299999713897705
0.5699999928474426
0.6050000190734863
0.6974999904632568
0.7325000166893005
0.8650000095367432
0.8824999928474426
0.8824999928474426
0.8899999856948853
0.8949999809265137
0.9150000214576721
0.8424999713897705
0.9325000047683716
1.1349999904632568
1.2699999809265137
1.340000033378601
1.3424999713897705
1.3174999952316284
1.4299999475479126
1.559999942779541
1.6924999952316284
1.877500057220459
1.847499966621399
1.8925000429153442
2.315000057220459
2.369999885559082
2.359999895095825
2.680000066757202
2.8499999046325684
2.927500009536743
2.9825000762939453
3.2149999141693115
3.182499885559082
3.369999885559082
3.5299999713897705
3.4749999046325684
3.5399999618530273
3.390000104904175
3.625
3.934999942779541
4.40749979019165
4.539999961853027
4.5625
4.34250020980835
4.482500076293945
4.547500133514404
5.119999885559082
4.847499847412109
4.795000076293945
4.989999771118164
5.097499847412109
5.452499866485596
5.335000038146973
5.522500038146973
5.65500020980835
5.695000171661377
5.980000019073486
6.267499923706055
6.045000076293945
6.105000019073486
5.822500228881836
5.962500095367432
6.375
6.5625
6.527500152587891
6.622499942779541
6.690000057220459
6.585000038146973
7.054999828338623
7.482500076293945
7.84250020980835
7.807499885559082
7.284999847412109
7.132500171661377
7.664999961853027
7.284999847412109
7.40749979019165
7.409999847412109
7.320000171661377
7.820000171661377
8.53499984741211
8.779999732971191
8.609999656677246
8.895000457763672
8.40250015258789
8.167499542236328
8.125
7.534999847412109
7.909999847412109
7.757500171661377
7.590000152587891
7.440000057220459
7.300000190734863
7.237500190734863
7.420000076293945
7.295000076293945
7.630000114440918
7.542500019073486
7.204999923706055
7.804999828338623
7.449999809265137
7.46999979019165
7.832499980926514
7.612500190734863
8.335000038146973
8.039999961853027
8.225000381469727
8.300000190734863
7.824999809265137
7.53249979019165
7.892499923706055
7.287499904632568
7.960000038146973
8.475000381469727
8.282500267028809
8.707500457763672
8.555000305175781
8.350000381469727
9.369999885559082
10.324999809265137
10.582500457763672
10.975000381469727
10.694999694824219
10.880000114440918
10.822500228881836
10.604999542236328
10.835000038146973
10.962499618530273
10.8100004196167
11.0
11.595000267028809
11.734999656677246
12.305000305175781
12.5024995803833
12.302499771118164
12.010000228881836
11.612500190734863
11.522500038146973
11.512499809265137
11.829999923706055
11.942500114440918
11.234999656677246
11.074999809265137
11.057499885559082
11.255000114440918
10.640000343322754
10.800000190734863
10.807499885559082
10.342499732971191
10.617500305175781
10.395000457763672
9.742500305175781
9.875
10.112500190734863
10.78499984741211
11.682499885559082
12.234999656677246
11.899999618530273
12.109999656677246
12.107500076293945
11.197500228881836
11.399999618530273
10.772500038146973
10.467499732971191
10.614999771118164
10.797499656677246
11.092499732971191
12.135000228881836
13.295000076293945
14.135000228881836
14.5
15.172499656677246
14.742500305175781
13.78499984741211
14.204999923706055
14.217499732971191
14.02750015258789
14.052499771118164
13.492500305175781
13.677499771118164
14.3100004196167
15.012499809265137
15.949999809265137
16.440000534057617
15.359999656677246
15.03499984741211
14.635000228881836
14.869999885559082
14.649999618530273
14.84749984741211
14.859999656677246
14.707500457763672
14.042499542236328
14.952500343322754
15.352499961853027
15.895000457763672
16.344999313354492
17.149999618530273
17.1875
17.142499923706055
17.440000534057617
17.827499389648438
18.1825008392334
18.795000076293945
18.697500228881836
18.604999542236328
18.502500534057617
17.542499542236328
17.462499618530273
17.764999389648438
18.34749984741211
18.375
18.78499984741211
19.0674991607666
19.239999771118164
18.655000686645508
18.385000228881836
19.329999923706055
19.584999084472656
18.922500610351562
19.417499542236328
19.457500457763672
19.09000015258789
18.670000076293945
19.27750015258789
19.897499084472656
19.522499084472656
19.5049991607666
19.770000457763672
20.077499389648438
20.3799991607666
19.424999237060547
20.042499542236328
20.22249984741211
20.602500915527344
20.229999542236328
20.174999237060547
20.71500015258789
21.149999618530273
20.602500915527344
20.837499618530273
20.852500915527344
21.352500915527344
20.375
19.912500381469727
20.454999923706055
21.145000457763672
20.795000076293945
20.815000534057617
20.887500762939453
20.040000915527344
20.104999542236328
19.97249984741211
19.770000457763672
20.352500915527344
20.552499771118164
21.002500534057617
21.002500534057617
21.795000076293945
21.729999542236328
21.072500228881836
20.862499237060547
21.622499465942383
20.8075008392334
20.049999237060547
20.354999542236328
20.612499237060547
21.155000686645508
21.094999313354492
21.842500686645508
21.815000534057617
22.325000762939453
22.3799991607666
22.31999969482422
20.729999542236328
20.452499389648438
19.375
18.802499771118164
18.389999389648438
18.112499237060547
18.645000457763672
19.11750030517578
18.9325008392334
19.114999771118164
19.399999618530273
19.25
18.735000610351562
18.857500076293945
20.25
20.827499389648438
20.872499465942383
20.337499618530273
20.517499923706055
21.024999618530273
19.772499084472656
20.262500762939453
20.9375
20.427499771118164
20.270000457763672
20.512500762939453
20.832500457763672
20.337499618530273
20.392499923706055
21.454999923706055
22.407499313354492
21.8700008392334
21.927499771118164
21.747499465942383
21.452499389648438
21.334999084472656
20.627500534057617
21.075000762939453
21.657499313354492
21.917499542236328
21.1924991607666
22.077499389648438
21.38249969482422
21.135000228881836
20.762500762939453
20.827499389648438
21.172500610351562
21.077499389648438
21.897499084472656
22.155000686645508
22.422500610351562
22.635000228881836
22.5625
23.229999542236328
23.467500686645508
23.8799991607666
24.112499237060547
24.407499313354492
25.502500534057617
25.047500610351562
24.575000762939453
24.395000457763672
23.895000457763672
23.59749984741211
23.017499923706055
22.010000228881836
21.31999969482422
20.5625
20.00749969482422
19.9424991607666
19.772499084472656
20.157499313354492
21.967500686645508
22.237499237060547
22.915000915527344
23.797500610351562
24.635000228881836
24.239999771118164
23.667499542236328
23.292499542236328
23.237499237060547
23.25749969482422
23.3700008392334
24.25749969482422
23.627500534057617
24.600000381469727
25.459999084472656
25.177499771118164
25.962499618530273
25.63249969482422
25.559999465942383
26.079999923706055
25.440000534057617
24.450000762939453
24.5049991607666
24.49250030517578
24.517499923706055
23.969999313354492
23.702499389648438
24.34749984741211
24.575000762939453
24.8700008392334
24.225000381469727
24.482500076293945
25.102500915527344
24.827499389648438
25.06999969482422
25.13249969482422
24.3700008392334
25.287500381469727
25.612499237060547
25.459999084472656
25.635000228881836
25.670000076293945
26.75749969482422
26.9424991607666
26.65999984741211
26.875
26.844999313354492
26.649999618530273
26.385000228881836
26.267499923706055
26.292499542236328
26.46500015258789
26.142499923706055
26.197500228881836
25.90250015258789
26.854999542236328
26.8125
26.010000228881836
25.892499923706055
26.024999618530273
25.857500076293945
24.967500686645508
24.952499389648438
25.6924991607666
25.770000457763672
25.524999618530273
25.8799991607666
25.975000381469727
26.262500762939453
26.290000915527344
26.014999389648438
26.125
25.927499771118164
26.549999237060547
26.9325008392334
27.020000457763672
27.1875
27.6875
27.887500762939453
28.087499618530273
27.84749984741211
27.247499465942383
27.34749984741211
27.315000534057617
26.815000534057617
26.9950008392334
27.149999618530273
27.475000381469727
26.450000762939453
25.3174991607666
25.315000534057617
25.514999389648438
25.0674991607666
25.06999969482422
25.672500610351562
26.022499084472656
25.907499313354492
26.024999618530273
26.332500457763672
26.24250030517578
26.202499389648438
26.420000076293945
26.184999465942383
27.077499389648438
26.614999771118164
27.59000015258789
27.19499969482422
27.087499618530273
26.717500686645508
26.607500076293945
25.020000457763672
24.55500030517578
25.327499389648438
26.127500534057617
26.262500762939453
26.34749984741211
27.274999618530273
28.202499389648438
29.204999923706055
29.63249969482422
29.1825008392334
29.739999771118164
30.30500030517578
29.184999465942383
28.172500610351562
28.09000015258789
27.46500015258789
26.99250030517578
26.844999313354492
26.377500534057617
26.5625
27.447500228881836
27.545000076293945
27.25749969482422
27.5625
27.774999618530273
28.170000076293945
27.927499771118164
27.272499084472656
27.844999313354492
27.6924991607666
27.15250015258789
27.55500030517578
26.927499771118164
27.082500457763672
27.6825008392334
27.372499465942383
26.950000762939453
27.662500381469727
27.787500381469727
27.96500015258789
27.672500610351562
27.639999389648438
28.0625
28.167499542236328
28.44499969482422
28.717500686645508
28.3174991607666
28.897499084472656
29.207500457763672
29.0049991607666
27.772499084472656
27.352500915527344
27.522499084472656
27.677499771118164
27.75
27.78499984741211
27.729999542236328
28.477500915527344
28.09749984741211
28.204999923706055
28.647499084472656
28.002500534057617
27.947500228881836
28.56999969482422
28.174999237060547
29.225000381469727
29.1200008392334
28.397499084472656
29.145000457763672
29.19499969482422
29.5625
29.905000686645508
30.162500381469727
29.81999969482422
30.1825008392334
30.072500228881836
30.752500534057617
30.469999313354492
30.450000762939453
30.0625
30.412500381469727
30.6875
30.407499313354492
30.6200008392334
30.592500686645508
31.00749969482422
31.772499084472656
30.857500076293945
30.50749969482422
30.197500228881836
29.177499771118164
29.5049991607666
29.844999313354492
29.787500381469727
30.645000457763672
30.9325008392334
31.147499084472656
30.86750030517578
31.092500686645508
30.452499389648438
29.412500381469727
29.082500457763672
29.262500762939453
29.709999084472656
29.612499237060547
29.022499084472656
29.24250030517578
28.9325008392334
28.327499389648438
27.344999313354492
27.4950008392334
27.704999923706055
27.4424991607666
27.072500228881836
27.8125
28.360000610351562
28.024999618530273
27.9325008392334
28.077499389648438
29.174999237060547
29.045000076293945
28.549999237060547
28.225000381469727
28.799999237060547
29.665000915527344
28.639999389648438
28.795000076293945
29.329999923706055
30.107500076293945
30.772499084472656
30.477500915527344
30.979999542236328
31.225000381469727
31.017499923706055
30.4375
30.834999084472656
30.80500030517578
31.047500610351562
30.047500610351562
29.53499984741211
29.977500915527344
30.1200008392334
29.520000457763672
29.44499969482422
29.125
29.520000457763672
29.36750030517578
29.702499389648438
29.530000686645508
29.74250030517578
29.897499084472656
30.219999313354492
30.112499237060547
30.795000076293945
30.7450008392334
30.135000228881836
29.90250015258789
29.709999084472656
29.485000610351562
29.02750015258789
28.114999771118164
28.700000762939453
28.825000762939453
28.489999771118164
28.514999389648438
28.969999313354492
29.309999465942383
29.700000762939453
30.1825008392334
30.434999465942383
30.375
30.842500686645508
30.412500381469727
30.489999771118164
30.860000610351562
31.165000915527344
30.782499313354492
31.3799991607666
31.350000381469727
31.22249984741211
31.21500015258789
30.84000015258789
30.8174991607666
30.962499618530273
30.752500534057617
29.99250030517578
29.55500030517578
29.297500610351562
29.332500457763672
29.0
29.049999237060547
29.139999389648438
29.809999465942383
30.422500610351562
31.024999618530273
30.729999542236328
30.787500381469727
31.094999313354492
31.1875
31.184999465942383
31.405000686645508
31.415000915527344
31.677499771118164
32.157501220703125
32.29499816894531
31.889999389648438
32.09000015258789
31.602500915527344
31.267499923706055
31.385000228881836
31.600000381469727
31.217500686645508
31.602500915527344
31.31999969482422
31.75749969482422
30.65999984741211
31.237499237060547
31.212499618530273
30.4424991607666
30.72249984741211
29.862499237060547
30.225000381469727
30.212499618530273
29.959999084472656
29.979999542236328
29.482500076293945
30.030000686645508
30.712499618530273
30.822500228881836
31.600000381469727
32.41749954223633
32.779998779296875
33.52000045776367
32.877498626708984
32.810001373291016
31.850000381469727
31.272499084472656
30.477500915527344
29.954999923706055
29.662500381469727
30.135000228881836
30.065000534057617
30.292499542236328
30.34749984741211
30.489999771118164
30.469999313354492
30.357500076293945
30.272499084472656
31.037500381469727
31.427499771118164
31.457500457763672
31.967500686645508
31.732500076293945
32.22999954223633
32.11000061035156
31.594999313354492
31.809999465942383
31.485000610351562
31.22249984741211
31.717500686645508
31.469999313354492
31.22249984741211
31.364999771118164
31.047500610351562
31.100000381469727
30.7549991607666
30.584999084472656
30.96500015258789
31.737499237060547
31.887500762939453
32.310001373291016
32.97249984741211
32.682498931884766
32.54999923706055
32.470001220703125
31.645000457763672
31.440000534057617
31.5
31.639999389648438
31.385000228881836
31.889999389648438
32.505001068115234
32.880001068115234
32.89500045776367
32.83000183105469
32.880001068115234
32.84000015258789
32.942501068115234
32.852500915527344
33.41749954223633
33.70500183105469
33.537498474121094
33.349998474121094
33.48249816894531
32.7599983215332
32.064998626708984
31.545000076293945
30.81999969482422
30.795000076293945
31.149999618530273
30.809999465942383
30.667499542236328
30.587499618530273
30.78499984741211
30.977500915527344
30.72249984741211
31.260000228881836
31.59000015258789
32.02000045776367
33.02750015258789
32.977500915527344
32.85749816894531
32.98249816894531
32.20000076293945
32.19499969482422
31.322500228881836
31.02750015258789
31.170000076293945
31.350000381469727
31.760000228881836
32.442501068115234
32.82749938964844
33.005001068115234
32.897499084472656
32.71500015258789
32.63750076293945
32.10749816894531
31.94499969482422
32.494998931884766
32.39500045776367
31.850000381469727
32.040000915527344
31.917499542236328
32.709999084472656
32.10499954223633
31.860000610351562
31.9325008392334
32.407501220703125
32.89250183105469
32.6974983215332
32.369998931884766
32.36000061035156
32.84749984741211
32.79999923706055
32.9474983215332
31.90999984741211
32.334999084472656
31.862499237060547
31.832500457763672
32.1974983215332
31.834999084472656
32.0625
31.967500686645508
31.342500686645508
31.415000915527344
30.489999771118164
30.707500457763672
30.357500076293945
30.912500381469727
31.360000610351562
31.042499542236328
31.350000381469727
31.727500915527344
32.375
32.6974983215332
32.40250015258789
32.314998626708984
33.15999984741211
32.48500061035156
33.10749816894531
33.157501220703125
32.53499984741211
32.5724983215332
32.58000183105469
31.96500015258789
31.649999618530273
30.905000686645508
30.950000762939453
31.260000228881836
30.920000076293945
30.457500457763672
30.895000457763672
31.7549991607666
31.645000457763672
31.702499389648438
31.467500686645508
31.917499542236328
32.22999954223633
32.685001373291016
32.38999938964844
32.73749923706055
33.08250045776367
33.337501525878906
33.60499954223633
33.20000076293945
33.337501525878906
33.442501068115234
33.54750061035156
33.682498931884766
33.79499816894531
33.5724983215332
33.310001373291016
33.02750015258789
33.29499816894531
32.717498779296875
32.75
32.82749938964844
32.61249923706055
32.217498779296875
32.41999816894531
31.600000381469727
31.38249969482422
31.537500381469727
31.137500762939453
31.122499465942383
30.989999771118164
31.362499237060547
31.854999542236328
31.212499618530273
30.920000076293945
31.267499923706055
31.50749969482422
30.427499771118164
30.752500534057617
31.06999969482422
30.90250015258789
31.297500610351562
31.327499389648438
31.34749984741211
31.4375
31.392499923706055
31.752500534057617
31.510000228881836
31.334999084472656
31.364999771118164
30.99250030517578
31.15999984741211
31.200000762939453
30.520000457763672
30.497499465942383
30.579999923706055
31.072500228881836
31.375
31.767499923706055
32.342498779296875
33.41749954223633
34.040000915527344
33.88750076293945
33.66749954223633
33.810001373291016
33.26250076293945
33.185001373291016
33.06999969482422
32.83250045776367
33.08000183105469
33.125
33.21500015258789
32.942501068115234
32.07749938964844
31.212499618530273
30.47249984741211
30.924999237060547
31.209999084472656
31.1299991607666
31.610000610351562
32.41999816894531
33.0099983215332
32.9900016784668
32.86000061035156
32.82749938964844
32.92250061035156
32.997501373291016
32.74250030517578
32.79750061035156
33.244998931884766
32.70500183105469
32.647499084472656
32.532501220703125
32.317501068115234
32.75749969482422
32.17499923706055
32.17499923706055
32.0525016784668
32.6974983215332
33.22249984741211
33.6875
33.3025016784668
33.435001373291016
33.96500015258789
34.00749969482422
33.26750183105469
32.907501220703125
32.85499954223633
32.942501068115234
33.5724983215332
33.3224983215332
33.56999969482422
32.99250030517578
33.1775016784668
33.26750183105469
33.352500915527344
33.415000915527344
33.23749923706055
33.337501525878906
33.537498474121094
33.39250183105469
33.130001068115234
32.85749816894531
32.69499969482422
32.95000076293945
32.790000915527344
32.48749923706055
32.307498931884766
32.04750061035156
31.267499923706055
31.1924991607666
31.327499389648438
31.405000686645508
31.649999618530273
31.712499618530273
32.1349983215332
32.46500015258789
32.817501068115234
33.3025016784668
32.720001220703125
33.41749954223633
32.817501068115234
32.682498931884766
32.845001220703125
32.74250030517578
32.717498779296875
32.404998779296875
32.252498626708984
32.70500183105469
32.994998931884766
33.282501220703125
32.685001373291016
33.41749954223633
33.290000915527344
33.662498474121094
33.38750076293945
33.127498626708984
32.685001373291016
33.060001373291016
33.782501220703125
33.48500061035156
34.17499923706055
34.07500076293945
33.747501373291016
33.412498474121094
33.227500915527344
33.162498474121094
32.61000061035156
31.834999084472656
32.54750061035156
32.842498779296875
33.314998626708984
33.07749938964844
33.084999084472656
32.54249954223633
33.029998779296875
32.5525016784668
32.5099983215332
32.345001220703125
32.59749984741211
32.994998931884766
32.8650016784668
32.689998626708984
32.71500015258789
32.89250183105469
33.32749938964844
32.92499923706055
33.439998626708984
33.709999084472656
33.34749984741211
32.907501220703125
32.125
31.735000610351562
31.147499084472656
31.377500534057617
31.594999313354492
31.540000915527344
32.41749954223633
32.76250076293945
32.682498931884766
32.80500030517578
33.099998474121094
33.442501068115234
33.5625
33.86000061035156
33.752498626708984
33.9375
34.27000045776367
34.192501068115234
34.154998779296875
34.0099983215332
33.25749969482422
33.119998931884766
32.84749984741211
32.002498626708984
32.2599983215332
31.887500762939453
32.41749954223633
32.20249938964844
32.66749954223633
32.78499984741211
32.97999954223633
32.88249969482422
32.337501525878906
32.13999938964844
32.102500915527344
32.290000915527344
32.244998931884766
31.9950008392334
31.200000762939453
32.192501068115234
31.657499313354492
30.80500030517578
30.24250030517578
30.135000228881836
30.475000381469727
29.162500381469727
29.892499923706055
30.767499923706055
31.489999771118164
31.424999237060547
32.58250045776367
32.52750015258789
33.407501220703125
33.442501068115234
33.0099983215332
32.7400016784668
32.32500076293945
32.125
32.619998931884766
32.182498931884766
32.20750045776367
32.70249938964844
32.467498779296875
32.54499816894531
32.49250030517578
32.29499816894531
32.282501220703125
32.352500915527344
33.06999969482422
33.83000183105469
33.57500076293945
33.61000061035156
33.84000015258789
33.900001525878906
33.58250045776367
33.310001373291016
33.654998779296875
32.782501220703125
32.63750076293945
31.917499542236328
31.735000610351562
31.172500610351562
31.147499084472656
31.377500534057617
31.364999771118164
32.272499084472656
32.43000030517578
32.272499084472656
31.892499923706055
31.357500076293945
31.47249984741211
31.139999389648438
31.107500076293945
31.217500686645508
31.512500762939453
32.224998474121094
31.542499542236328
31.450000762939453
31.872499465942383
32.72249984741211
32.772499084472656
32.654998779296875
32.8650016784668
33.50749969482422
34.29249954223633
34.04249954223633
32.88750076293945
32.625
32.744998931884766
32.01750183105469
31.575000762939453
31.174999237060547
31.412500381469727
31.78499984741211
32.154998779296875
32.23249816894531
32.212501525878906
32.467498779296875
32.602500915527344
32.83000183105469
32.724998474121094
33.025001525878906
33.227500915527344
33.27750015258789
33.290000915527344
33.63249969482422
33.88999938964844
34.48500061035156
34.287498474121094
34.09749984741211
33.592498779296875
33.60749816894531
33.877498626708984
32.8025016784668
32.834999084472656
32.845001220703125
32.67250061035156
32.904998779296875
32.467498779296875
32.162498474121094
32.04499816894531
32.477500915527344
33.1974983215332
33.717498779296875
34.30500030517578
34.50749969482422
34.532501220703125
34.01750183105469
32.75
32.08250045776367
31.077499389648438
31.602500915527344
31.782499313354492
32.3025016784668
32.90250015258789
32.20500183105469
32.35749816894531
32.24250030517578
32.467498779296875
32.247501373291016
31.674999237060547
32.185001373291016
32.8025016784668
32.63999938964844
32.75
32.282501220703125
32.5525016784668
32.42250061035156
32.45750045776367
32.540000915527344
32.724998474121094
32.532501220703125
33.244998931884766
32.96500015258789
33.407501220703125
33.849998474121094
33.564998626708984
33.27000045776367
33.775001525878906
32.997501373291016
32.79249954223633
32.3125
32.599998474121094
32.625
32.709999084472656
33.32749938964844
34.26499938964844
34.20500183105469
33.709999084472656
33.717498779296875
33.63750076293945
33.95000076293945
33.26499938964844
32.94499969482422
33.15999984741211
33.07749938964844
33.04499816894531
32.119998931884766
31.9325008392334
31.834999084472656
32.002498626708984
31.920000076293945
32.20000076293945
32.564998626708984
31.9950008392334
32.26750183105469
32.56999969482422
33.14250183105469
33.040000915527344
32.5
32.17499923706055
32.38999938964844
32.25749969482422
32.217498779296875
31.3799991607666
31.329999923706055
32.002498626708984
32.04499816894531
31.235000610351562
31.612499237060547
31.690000534057617
31.760000228881836
32.26750183105469
32.779998779296875
32.7599983215332
32.66999816894531
32.9900016784668
32.845001220703125
32.57500076293945
32.38249969482422
32.3650016784668
32.40250015258789
32.252498626708984
32.17250061035156
32.540000915527344
32.58000183105469
32.1974983215332
32.49250030517578
33.182498931884766
33.400001525878906
33.477500915527344
34.01499938964844
33.61000061035156
33.94499969482422
34.29499816894531
33.68000030517578
34.3224983215332
33.98500061035156
34.40250015258789
34.564998626708984
34.63999938964844
34.53499984741211
34.630001068115234
34.85499954223633
35.45750045776367
34.65999984741211
34.790000915527344
34.72249984741211
34.9375
34.939998626708984
34.6875
34.22999954223633
34.537498474121094
34.057498931884766
34.04499816894531
34.05500030517578
33.790000915527344
34.185001373291016
34.03499984741211
33.162498474121094
33.212501525878906
32.91749954223633
33.162498474121094
32.127498626708984
31.895000457763672
32.900001525878906
33.494998931884766
33.52750015258789
33.772499084472656
34.122501373291016
34.877498626708984
35.15999984741211
35.56999969482422
35.282501220703125
35.1875
34.94499969482422
34.84000015258789
34.09000015258789
33.622501373291016
33.77000045776367
34.32500076293945
34.47249984741211
34.247501373291016
34.7599983215332
35.189998626708984
35.14500045776367
34.337501525878906
33.7599983215332
32.97249984741211
32.35749816894531
32.064998626708984
31.707500457763672
31.75
32.29249954223633
32.70000076293945
33.01499938964844
32.345001220703125
32.48249816894531
32.497501373291016
32.470001220703125
32.79750061035156
32.665000915527344
33.154998779296875
33.14250183105469
33.41749954223633
33.875
34.18000030517578
34.29499816894531
34.087501525878906
33.7400016784668
33.51499938964844
33.51250076293945
32.79249954223633
32.595001220703125
33.287498474121094
33.404998779296875
33.584999084472656
33.3125
33.0
32.525001525878906
33.13750076293945
32.997501373291016
32.709999084472656
32.89250183105469
32.247501373291016
31.985000610351562
30.639999389648438
30.272499084472656
29.967500686645508
29.9325008392334
30.047500610351562
29.764999389648438
30.239999771118164
29.920000076293945
29.97249984741211
29.47249984741211
29.88249969482422
28.760000228881836
28.542499542236328
27.889999389648438
28.47249984741211
28.014999389648438
27.532499313354492
28.017499923706055
28.655000686645508
27.7450008392334
28.155000686645508
29.315000534057617
30.739999771118164
30.727500915527344
30.850000381469727
32.064998626708984
32.247501373291016
32.412498474121094
32.16749954223633
31.147499084472656
31.174999237060547
30.752500534057617
30.8174991607666
31.434999465942383
31.047500610351562
31.702499389648438
31.989999771118164
32.904998779296875
33.1974983215332
32.869998931884766
33.095001220703125
33.7599983215332
33.44499969482422
33.38249969482422
33.150001525878906
33.0724983215332
33.939998626708984
33.477500915527344
33.400001525878906
33.59000015258789
33.64500045776367
33.967498779296875
33.494998931884766
33.287498474121094
33.102500915527344
33.380001068115234
33.75749969482422
34.00749969482422
34.029998779296875
33.86750030517578
33.912498474121094
33.23749923706055
32.84749984741211
33.0525016784668
33.39250183105469
33.18000030517578
33.38750076293945
34.150001525878906
34.26499938964844
33.97999954223633
34.01250076293945
34.16749954223633
34.560001373291016
34.622501373291016
34.45249938964844
34.587501525878906
34.904998779296875
34.685001373291016
34.59000015258789
