EpRewMean
10.0
3.8644068241119385
4.260204315185547
3.25
4.0
2.950000047683716
3.0
2.9749999046325684
3.2750000953674316
3.549999952316284
3.575000047683716
3.424999952316284
3.5250000953674316
3.674999952316284
3.549999952316284
3.424999952316284
3.075000047683716
2.700000047683716
3.25
3.424999952316284
3.2249999046325684
3.25
2.875
3.049999952316284
3.7249999046325684
3.825000047683716
3.3499999046325684
3.0
3.325000047683716
3.25
3.549999952316284
3.7750000953674316
3.700000047683716
3.575000047683716
3.575000047683716
3.4749999046325684
2.9749999046325684
3.049999952316284
3.4000000953674316
3.2249999046325684
3.4749999046325684
3.700000047683716
3.5
3.375
3.075000047683716
3.125
3.299999952316284
3.200000047683716
3.375
3.549999952316284
3.700000047683716
3.6500000953674316
3.6500000953674316
3.5
3.8499999046325684
3.7750000953674316
3.924999952316284
3.575000047683716
3.3499999046325684
3.049999952316284
2.924999952316284
3.325000047683716
3.4749999046325684
3.450000047683716
3.674999952316284
3.4000000953674316
3.75
4.5
3.950000047683716
3.799999952316284
3.625
3.450000047683716
3.825000047683716
3.9000000953674316
3.7249999046325684
3.700000047683716
3.674999952316284
3.75
3.75
3.424999952316284
3.450000047683716
3.625
3.825000047683716
3.625
3.4749999046325684
3.549999952316284
3.6500000953674316
4.099999904632568
4.375
4.150000095367432
3.799999952316284
3.7249999046325684
4.25
3.950000047683716
3.875
3.625
3.4749999046325684
3.0999999046325684
3.4749999046325684
3.924999952316284
4.025000095367432
3.625
3.625
3.924999952316284
3.799999952316284
3.375
3.549999952316284
3.75
3.799999952316284
3.575000047683716
3.700000047683716
4.150000095367432
4.025000095367432
3.950000047683716
3.950000047683716
3.924999952316284
3.924999952316284
3.4000000953674316
3.450000047683716
3.4000000953674316
3.2750000953674316
3.299999952316284
3.174999952316284
3.6500000953674316
4.300000190734863
3.799999952316284
3.825000047683716
4.025000095367432
3.7750000953674316
3.5
3.700000047683716
4.099999904632568
4.300000190734863
3.950000047683716
3.950000047683716
4.224999904632568
4.25
4.199999809265137
4.125
3.9749999046325684
4.150000095367432
4.125
4.224999904632568
4.275000095367432
3.75
3.424999952316284
3.625
3.9749999046325684
3.9000000953674316
3.7750000953674316
3.875
4.099999904632568
4.375
4.375
4.300000190734863
4.099999904632568
3.924999952316284
3.875
4.150000095367432
4.025000095367432
3.6500000953674316
3.7249999046325684
3.424999952316284
3.700000047683716
4.199999809265137
3.924999952316284
3.875
4.150000095367432
3.875
3.6500000953674316
3.924999952316284
4.199999809265137
4.300000190734863
4.275000095367432
4.324999809265137
4.5
4.199999809265137
4.300000190734863
4.400000095367432
4.400000095367432
4.099999904632568
3.75
4.025000095367432
3.700000047683716
3.9000000953674316
4.25
4.150000095367432
4.0
4.175000190734863
4.275000095367432
4.349999904632568
4.300000190734863
4.199999809265137
4.375
4.300000190734863
4.150000095367432
4.199999809265137
4.375
4.074999809265137
3.700000047683716
3.3499999046325684
4.0
4.525000095367432
4.300000190734863
4.175000190734863
3.799999952316284
3.5999999046325684
4.025000095367432
3.950000047683716
3.799999952316284
3.8499999046325684
3.799999952316284
4.25
4.300000190734863
4.275000095367432
4.300000190734863
3.950000047683716
4.175000190734863
4.675000190734863
4.199999809265137
3.7249999046325684
3.950000047683716
4.199999809265137
4.175000190734863
4.425000190734863
4.550000190734863
4.150000095367432
4.324999809265137
4.224999904632568
4.099999904632568
4.175000190734863
4.150000095367432
4.125
4.099999904632568
4.199999809265137
4.525000095367432
4.574999809265137
4.224999904632568
4.199999809265137
4.525000095367432
4.574999809265137
4.400000095367432
4.5
4.574999809265137
4.800000190734863
4.375
4.199999809265137
4.375
4.650000095367432
4.625
4.425000190734863
4.625
5.025000095367432
4.75
4.300000190734863
4.125
4.150000095367432
4.25
4.425000190734863
4.574999809265137
4.675000190734863
3.924999952316284
4.0
4.449999809265137
4.5
4.849999904632568
4.849999904632568
4.724999904632568
4.25
4.5
4.949999809265137
4.75
4.625
4.824999809265137
4.724999904632568
4.875
4.824999809265137
4.425000190734863
4.275000095367432
4.675000190734863
4.550000190734863
4.400000095367432
4.75
4.974999904632568
5.324999809265137
5.0
4.425000190734863
5.025000095367432
5.099999904632568
4.949999809265137
5.050000190734863
5.0
4.599999904632568
4.675000190734863
4.824999809265137
4.824999809265137
4.699999809265137
4.75
4.800000190734863
4.900000095367432
5.050000190734863
4.724999904632568
4.525000095367432
4.724999904632568
5.349999904632568
5.275000095367432
4.699999809265137
4.224999904632568
4.25
4.900000095367432
5.224999904632568
4.949999809265137
4.949999809265137
5.0
5.0
5.300000190734863
5.425000190734863
5.300000190734863
4.724999904632568
5.074999809265137
5.150000095367432
4.775000095367432
5.5
5.425000190734863
5.849999904632568
5.525000095367432
5.050000190734863
5.275000095367432
4.974999904632568
5.400000095367432
5.574999809265137
4.824999809265137
4.699999809265137
4.949999809265137
5.449999809265137
5.550000190734863
5.425000190734863
5.199999809265137
4.925000190734863
4.925000190734863
5.25
5.449999809265137
5.525000095367432
5.125
5.400000095367432
5.599999904632568
5.025000095367432
5.224999904632568
5.199999809265137
5.425000190734863
5.474999904632568
5.449999809265137
5.425000190734863
5.425000190734863
5.449999809265137
5.550000190734863
5.349999904632568
5.324999809265137
5.175000190734863
5.050000190734863
5.074999809265137
5.324999809265137
5.5
5.5
5.875
5.800000190734863
5.625
5.5
5.199999809265137
5.275000095367432
5.375
4.949999809265137
5.400000095367432
5.375
5.224999904632568
5.550000190734863
5.275000095367432
5.050000190734863
5.724999904632568
5.574999809265137
5.525000095367432
5.275000095367432
5.0
5.724999904632568
5.474999904632568
5.625
5.650000095367432
5.074999809265137
5.625
5.925000190734863
5.675000190734863
5.275000095367432
5.775000095367432
5.525000095367432
5.699999809265137
5.425000190734863
5.050000190734863
5.349999904632568
5.599999904632568
5.324999809265137
5.199999809265137
5.625
5.074999809265137
5.150000095367432
5.625
6.074999809265137
5.800000190734863
5.474999904632568
5.775000095367432
6.025000095367432
5.900000095367432
5.699999809265137
5.525000095367432
5.775000095367432
6.099999904632568
5.900000095367432
5.650000095367432
5.5
5.525000095367432
5.25
5.050000190734863
5.474999904632568
5.800000190734863
6.025000095367432
6.025000095367432
6.099999904632568
5.849999904632568
6.074999809265137
6.0
5.449999809265137
5.574999809265137
5.625
5.724999904632568
5.775000095367432
5.449999809265137
5.699999809265137
5.699999809265137
5.599999904632568
5.474999904632568
6.074999809265137
5.849999904632568
5.724999904632568
6.050000190734863
6.099999904632568
5.849999904632568
5.849999904632568
5.599999904632568
5.775000095367432
5.775000095367432
6.125
5.849999904632568
5.849999904632568
5.675000190734863
5.900000095367432
6.099999904632568
5.800000190734863
6.25
6.449999809265137
5.974999904632568
6.324999809265137
5.625
5.574999809265137
5.900000095367432
5.875
6.25
6.224999904632568
5.974999904632568
5.775000095367432
5.900000095367432
6.525000095367432
5.75
5.974999904632568
6.199999809265137
6.574999809265137
6.150000095367432
5.875
6.5
6.300000190734863
6.224999904632568
6.349999904632568
6.525000095367432
5.925000190734863
5.599999904632568
6.125
6.175000190734863
6.099999904632568
6.375
6.425000190734863
6.400000095367432
6.025000095367432
6.0
6.150000095367432
6.150000095367432
6.525000095367432
6.300000190734863
6.074999809265137
6.074999809265137
6.025000095367432
6.074999809265137
6.449999809265137
6.275000095367432
6.525000095367432
6.125
6.5
6.349999904632568
5.949999809265137
6.074999809265137
5.824999809265137
6.099999904632568
6.275000095367432
6.199999809265137
6.050000190734863
6.050000190734863
5.824999809265137
6.125
6.400000095367432
5.974999904632568
6.199999809265137
5.974999904632568
6.349999904632568
6.550000190734863
6.474999904632568
6.025000095367432
6.199999809265137
6.324999809265137
6.400000095367432
6.400000095367432
6.550000190734863
6.849999904632568
6.375
6.75
6.800000190734863
6.5
6.074999809265137
6.099999904632568
6.349999904632568
6.0
6.400000095367432
6.175000190734863
6.550000190734863
6.675000190734863
6.625
5.925000190734863
6.175000190734863
6.375
6.625
6.675000190734863
6.425000190734863
6.724999904632568
6.5
6.675000190734863
7.050000190734863
6.625
6.449999809265137
6.349999904632568
6.724999904632568
6.574999809265137
6.925000190734863
6.25
6.275000095367432
6.724999904632568
6.25
6.800000190734863
6.650000095367432
6.800000190734863
6.925000190734863
6.474999904632568
6.900000095367432
6.275000095367432
7.125
6.574999809265137
6.724999904632568
6.275000095367432
6.449999809265137
6.949999809265137
6.599999904632568
6.375
6.199999809265137
6.449999809265137
7.224999904632568
6.974999904632568
6.849999904632568
6.875
6.699999809265137
6.550000190734863
6.625
6.800000190734863
6.574999809265137
7.099999904632568
6.974999904632568
6.650000095367432
7.0
6.824999809265137
6.574999809265137
6.75
6.625
6.625
6.900000095367432
6.625
6.400000095367432
6.824999809265137
6.599999904632568
6.550000190734863
7.275000095367432
6.775000095367432
6.574999809265137
7.0
6.675000190734863
6.199999809265137
6.574999809265137
6.800000190734863
6.875
7.0
6.525000095367432
6.625
6.375
6.550000190734863
6.724999904632568
6.775000095367432
6.724999904632568
6.724999904632568
6.800000190734863
6.900000095367432
6.550000190734863
6.474999904632568
6.724999904632568
6.574999809265137
6.75
6.800000190734863
7.125
6.724999904632568
6.949999809265137
6.75
7.300000190734863
7.199999809265137
7.025000095367432
6.900000095367432
7.0
7.275000095367432
6.900000095367432
7.224999904632568
7.175000190734863
7.175000190734863
6.925000190734863
7.375
7.275000095367432
6.800000190734863
7.175000190734863
7.375
7.300000190734863
6.949999809265137
6.974999904632568
7.400000095367432
7.525000095367432
7.5
7.25
7.224999904632568
6.724999904632568
6.724999904632568
6.675000190734863
7.0
7.599999904632568
7.175000190734863
6.824999809265137
7.125
6.925000190734863
7.125
6.925000190734863
7.525000095367432
7.349999904632568
7.400000095367432
7.300000190734863
7.550000190734863
7.324999809265137
7.175000190734863
7.324999809265137
7.5
7.5
7.5
7.5
7.699999809265137
7.525000095367432
7.574999809265137
7.625
7.275000095367432
7.650000095367432
7.5
7.699999809265137
7.275000095367432
7.449999809265137
6.675000190734863
7.150000095367432
7.400000095367432
7.150000095367432
7.175000190734863
7.125
7.224999904632568
6.974999904632568
7.474999904632568
7.5
7.150000095367432
7.074999809265137
7.5
7.275000095367432
7.125
7.574999809265137
7.224999904632568
7.550000190734863
7.449999809265137
7.550000190734863
7.400000095367432
7.074999809265137
7.550000190734863
7.574999809265137
7.449999809265137
7.375
7.324999809265137
7.824999809265137
7.724999904632568
7.5
7.675000190734863
7.349999904632568
7.375
7.150000095367432
7.324999809265137
7.25
6.849999904632568
7.099999904632568
7.300000190734863
7.375
7.425000190734863
7.5
7.550000190734863
7.474999904632568
7.275000095367432
7.675000190734863
7.349999904632568
7.574999809265137
7.349999904632568
7.175000190734863
7.125
7.425000190734863
7.074999809265137
7.349999904632568
7.800000190734863
7.150000095367432
7.650000095367432
7.175000190734863
7.625
7.349999904632568
7.375
7.25
7.375
7.599999904632568
7.375
7.724999904632568
7.699999809265137
7.324999809265137
7.699999809265137
7.525000095367432
7.474999904632568
7.675000190734863
7.75
7.775000095367432
7.75
7.650000095367432
7.625
7.900000095367432
7.699999809265137
7.875
7.849999904632568
7.974999904632568
7.824999809265137
7.824999809265137
7.900000095367432
7.775000095367432
7.724999904632568
7.400000095367432
7.300000190734863
7.375
7.550000190734863
7.724999904632568
7.699999809265137
7.525000095367432
7.974999904632568
8.125
7.849999904632568
7.775000095367432
7.550000190734863
7.949999809265137
8.074999809265137
7.675000190734863
7.974999904632568
7.974999904632568
7.275000095367432
7.824999809265137
7.699999809265137
7.75
7.949999809265137
7.525000095367432
7.324999809265137
7.324999809265137
7.574999809265137
7.824999809265137
8.100000381469727
7.949999809265137
7.849999904632568
8.175000190734863
7.824999809265137
7.75
7.724999904632568
8.0
7.699999809265137
7.724999904632568
7.875
7.699999809265137
7.949999809265137
8.024999618530273
7.900000095367432
7.800000190734863
7.925000190734863
7.800000190734863
7.5
7.925000190734863
7.675000190734863
7.974999904632568
7.525000095367432
7.900000095367432
7.949999809265137
8.300000190734863
8.274999618530273
8.100000381469727
7.974999904632568
7.800000190734863
7.925000190734863
7.625
8.024999618530273
7.75
8.225000381469727
8.125
7.800000190734863
7.875
7.724999904632568
8.100000381469727
8.050000190734863
7.974999904632568
7.949999809265137
8.175000190734863
7.974999904632568
8.024999618530273
8.25
8.074999809265137
8.149999618530273
8.100000381469727
8.449999809265137
8.100000381469727
8.125
7.824999809265137
8.149999618530273
8.074999809265137
8.074999809265137
8.024999618530273
7.974999904632568
8.350000381469727
8.050000190734863
8.25
8.5
8.675000190734863
8.550000190734863
8.425000190734863
8.199999809265137
8.25
8.449999809265137
7.925000190734863
8.225000381469727
8.600000381469727
8.199999809265137
8.375
8.199999809265137
7.824999809265137
8.125
8.125
8.475000381469727
8.050000190734863
8.225000381469727
8.425000190734863
8.175000190734863
8.25
7.949999809265137
8.25
8.25
8.024999618530273
8.25
8.399999618530273
8.175000190734863
8.25
8.0
7.824999809265137
8.225000381469727
8.199999809265137
8.274999618530273
8.375
8.274999618530273
8.425000190734863
8.074999809265137
8.050000190734863
8.399999618530273
8.25
8.324999809265137
8.399999618530273
8.199999809265137
8.274999618530273
8.324999809265137
8.274999618530273
7.900000095367432
8.050000190734863
8.199999809265137
8.574999809265137
7.849999904632568
8.274999618530273
8.399999618530273
8.25
8.199999809265137
8.699999809265137
8.25
8.699999809265137
8.25
8.300000190734863
8.774999618530273
8.524999618530273
8.574999809265137
8.350000381469727
8.524999618530273
8.399999618530273
8.850000381469727
8.274999618530273
8.199999809265137
7.900000095367432
8.0
8.399999618530273
8.449999809265137
8.475000381469727
8.375
8.175000190734863
8.625
8.449999809265137
8.574999809265137
8.475000381469727
8.125
8.574999809265137
8.425000190734863
8.199999809265137
8.425000190734863
8.199999809265137
8.425000190734863
8.649999618530273
8.425000190734863
8.649999618530273
8.524999618530273
8.675000190734863
8.300000190734863
8.449999809265137
8.649999618530273
8.550000190734863
8.375
8.25
8.425000190734863
8.225000381469727
8.625
8.5
8.25
8.175000190734863
8.425000190734863
8.524999618530273
8.774999618530273
8.375
8.899999618530273
8.449999809265137
8.850000381469727
8.550000190734863
8.300000190734863
8.399999618530273
8.324999809265137
8.600000381469727
8.699999809265137
8.5
8.149999618530273
8.5
8.800000190734863
8.475000381469727
8.175000190734863
8.675000190734863
8.225000381469727
8.5
8.524999618530273
8.225000381469727
8.399999618530273
8.524999618530273
8.25
8.600000381469727
8.574999809265137
8.175000190734863
8.649999618530273
8.600000381469727
8.574999809265137
8.524999618530273
8.625
8.774999618530273
8.699999809265137
8.850000381469727
8.475000381469727
8.75
8.675000190734863
8.699999809265137
8.725000381469727
8.475000381469727
8.850000381469727
8.324999809265137
8.699999809265137
8.725000381469727
8.350000381469727
8.399999618530273
8.699999809265137
8.399999618530273
8.350000381469727
8.725000381469727
8.149999618530273
8.675000190734863
8.675000190734863
8.774999618530273
8.625
8.699999809265137
8.875
8.699999809265137
8.5
8.449999809265137
8.649999618530273
8.675000190734863
8.925000190734863
8.800000190734863
8.975000381469727
8.574999809265137
8.425000190734863
8.574999809265137
8.850000381469727
8.774999618530273
8.699999809265137
8.824999809265137
8.899999618530273
8.899999618530273
8.649999618530273
8.5
8.699999809265137
8.399999618530273
8.524999618530273
8.324999809265137
8.425000190734863
8.25
8.524999618530273
8.425000190734863
8.824999809265137
8.824999809265137
8.649999618530273
8.75
8.550000190734863
8.625
8.725000381469727
8.600000381469727
8.699999809265137
8.875
8.975000381469727
8.649999618530273
8.800000190734863
8.725000381469727
8.625
8.524999618530273
8.550000190734863
8.649999618530273
8.5
8.649999618530273
8.774999618530273
8.699999809265137
8.475000381469727
8.574999809265137
8.800000190734863
9.074999809265137
8.899999618530273
8.774999618530273
8.800000190734863
8.699999809265137
8.850000381469727
8.649999618530273
8.675000190734863
8.899999618530273
8.850000381469727
8.75
8.800000190734863
8.899999618530273
8.699999809265137
8.675000190734863
9.175000190734863
8.675000190734863
8.850000381469727
8.425000190734863
8.425000190734863
8.324999809265137
8.774999618530273
8.75
8.5
8.774999618530273
8.449999809265137
7.925000190734863
8.524999618530273
8.375
8.675000190734863
8.475000381469727
9.0
8.774999618530273
8.625
8.675000190734863
8.399999618530273
8.550000190734863
8.675000190734863
8.699999809265137
8.625
8.449999809265137
8.550000190734863
8.75
8.675000190734863
8.725000381469727
8.475000381469727
8.800000190734863
8.475000381469727
8.699999809265137
8.925000190734863
9.0
8.75
8.925000190734863
8.774999618530273
8.925000190734863
8.975000381469727
9.199999809265137
9.050000190734863
9.0
9.050000190734863
9.0
8.774999618530273
8.649999618530273
9.125
8.949999809265137
8.899999618530273
8.699999809265137
8.925000190734863
8.975000381469727
9.050000190734863
8.75
8.824999809265137
9.175000190734863
8.925000190734863
8.850000381469727
8.899999618530273
8.949999809265137
9.149999618530273
9.050000190734863
9.300000190734863
8.850000381469727
9.0
9.024999618530273
8.800000190734863
8.800000190734863
9.050000190734863
9.149999618530273
8.774999618530273
9.125
9.225000381469727
9.024999618530273
9.149999618530273
9.125
8.850000381469727
8.975000381469727
8.949999809265137
8.949999809265137
9.125
9.175000190734863
8.75
8.925000190734863
8.850000381469727
9.074999809265137
8.899999618530273
8.875
8.774999618530273
8.800000190734863
8.925000190734863
9.050000190734863
8.899999618530273
9.225000381469727
9.0
9.25
9.199999809265137
8.949999809265137
8.975000381469727
8.600000381469727
8.925000190734863
8.824999809265137
9.100000381469727
8.925000190734863
9.225000381469727
9.25
9.149999618530273
9.0
9.0
9.199999809265137
9.074999809265137
9.125
8.75
9.100000381469727
9.0
9.125
9.024999618530273
9.100000381469727
9.050000190734863
9.024999618530273
8.800000190734863
8.949999809265137
9.300000190734863
9.050000190734863
9.024999618530273
9.024999618530273
9.0
9.149999618530273
9.050000190734863
9.100000381469727
9.199999809265137
8.975000381469727
8.824999809265137
9.149999618530273
8.949999809265137
9.100000381469727
9.199999809265137
9.125
9.125
9.149999618530273
9.125
9.25
9.074999809265137
9.125
9.225000381469727
8.824999809265137
8.949999809265137
9.024999618530273
9.175000190734863
9.225000381469727
9.149999618530273
9.25
8.800000190734863
8.875
9.074999809265137
9.199999809265137
9.324999809265137
9.125
9.050000190734863
9.324999809265137
9.125
9.199999809265137
9.074999809265137
9.125
9.175000190734863
9.175000190734863
8.899999618530273
9.100000381469727
9.024999618530273
9.024999618530273
9.225000381469727
9.375
9.175000190734863
9.175000190734863
9.050000190734863
9.149999618530273
9.25
9.225000381469727
9.375
9.199999809265137
8.975000381469727
9.149999618530273
9.074999809265137
9.149999618530273
9.100000381469727
8.975000381469727
9.0
9.0
9.024999618530273
9.100000381469727
9.300000190734863
9.175000190734863
8.975000381469727
9.225000381469727
9.300000190734863
8.850000381469727
9.024999618530273
9.125
9.074999809265137
9.274999618530273
9.100000381469727
9.125
9.050000190734863
9.074999809265137
8.925000190734863
9.199999809265137
9.024999618530273
9.175000190734863
9.175000190734863
9.25
9.024999618530273
8.975000381469727
9.25
9.125
9.324999809265137
9.399999618530273
9.199999809265137
9.0
9.125
9.149999618530273
9.425000190734863
9.350000381469727
9.225000381469727
9.125
9.199999809265137
9.274999618530273
9.149999618530273
9.324999809265137
9.175000190734863
9.074999809265137
9.399999618530273
9.300000190734863
9.425000190734863
9.100000381469727
9.100000381469727
9.175000190734863
9.300000190734863
9.25
9.25
9.100000381469727
8.925000190734863
9.199999809265137
9.074999809265137
9.274999618530273
9.100000381469727
9.149999618530273
9.274999618530273
9.274999618530273
9.425000190734863
9.25
9.024999618530273
8.899999618530273
9.199999809265137
9.324999809265137
9.324999809265137
9.149999618530273
9.300000190734863
9.125
9.399999618530273
9.324999809265137
9.100000381469727
9.425000190734863
9.399999618530273
9.375
9.175000190734863
9.375
9.350000381469727
9.524999618530273
9.600000381469727
9.399999618530273
9.550000190734863
9.300000190734863
9.100000381469727
9.425000190734863
9.324999809265137
9.324999809265137
9.350000381469727
9.225000381469727
9.199999809265137
9.199999809265137
9.324999809265137
9.100000381469727
9.350000381469727
9.324999809265137
9.375
9.300000190734863
9.399999618530273
9.225000381469727
9.050000190734863
9.449999809265137
9.399999618530273
9.399999618530273
9.274999618530273
9.399999618530273
9.399999618530273
9.225000381469727
9.300000190734863
9.300000190734863
9.675000190734863
9.300000190734863
9.300000190734863
9.625
9.125
9.475000381469727
9.0
9.050000190734863
8.949999809265137
9.5
9.25
9.425000190734863
9.225000381469727
9.324999809265137
9.475000381469727
9.375
9.574999809265137
9.475000381469727
9.375
9.074999809265137
9.399999618530273
9.175000190734863
9.175000190734863
9.274999618530273
9.324999809265137
9.399999618530273
9.149999618530273
9.324999809265137
9.074999809265137
9.375
9.399999618530273
9.375
9.274999618530273
9.324999809265137
9.449999809265137
9.199999809265137
9.324999809265137
9.425000190734863
9.425000190734863
9.225000381469727
9.425000190734863
9.074999809265137
9.449999809265137
9.574999809265137
9.425000190734863
9.399999618530273
9.375
9.375
9.225000381469727
9.300000190734863
9.125
9.524999618530273
9.125
9.225000381469727
9.350000381469727
9.425000190734863
9.350000381469727
9.425000190734863
9.5
9.350000381469727
9.5
9.324999809265137
9.375
9.475000381469727
9.300000190734863
9.524999618530273
9.475000381469727
9.524999618530273
9.350000381469727
9.5
9.199999809265137
9.125
9.324999809265137
9.475000381469727
9.225000381469727
9.100000381469727
9.399999618530273
9.425000190734863
9.5
9.324999809265137
9.375
9.074999809265137
9.425000190734863
9.399999618530273
9.324999809265137
9.5
9.449999809265137
9.300000190734863
9.5
9.625
9.600000381469727
9.425000190734863
9.324999809265137
9.550000190734863
9.425000190734863
9.199999809265137
9.475000381469727
9.350000381469727
9.399999618530273
9.175000190734863
9.475000381469727
9.324999809265137
9.425000190734863
9.399999618530273
9.449999809265137
9.149999618530273
9.5
9.25
9.625
9.350000381469727
9.675000190734863
9.475000381469727
9.375
9.25
9.375
9.449999809265137
9.175000190734863
9.350000381469727
9.399999618530273
9.199999809265137
9.5
9.175000190734863
9.475000381469727
9.425000190734863
9.274999618530273
9.524999618530273
