EpRewMean
0.5951000452041626
0.6694000363349915
0.6244999766349792
0.66839998960495
0.6632000207901001
0.6847000122070312
0.671999990940094
0.6938999891281128
0.6858999729156494
0.6855000257492065
0.6880999803543091
0.6725999712944031
0.6869999766349792
0.6750999689102173
0.6577999591827393
0.6521999835968018
0.6710000038146973
0.6259000301361084
0.6866999864578247
0.6606999039649963
0.6809999346733093
0.673799991607666
0.666700005531311
0.6508999466896057
0.6564999222755432
0.680899977684021
0.6847999691963196
0.655299961566925
0.6420999765396118
0.679099977016449
0.677899956703186
0.677899956703186
0.6869999766349792
0.7076999545097351
0.7287999987602234
0.7801999449729919
0.7466999888420105
0.7675999402999878
0.7847999334335327
0.8480998873710632
0.864799976348877
0.9162998795509338
0.9675998687744141
0.9997997879981995
1.0283998250961304
1.0218998193740845
1.0129998922348022
0.9938998222351074
1.0812997817993164
1.089999794960022
1.1069998741149902
1.0897997617721558
1.1396996974945068
1.1868996620178223
1.1410998106002808
1.2570997476577759
1.277999758720398
1.2476997375488281
1.2791997194290161
1.3500996828079224
1.372599482536316
1.3638995885849
1.4378995895385742
1.4029995203018188
1.4220995903015137
1.4637995958328247
1.5688995122909546
1.6095995903015137
1.66849946975708
1.6525994539260864
1.7319995164871216
1.7662994861602783
1.8207992315292358
1.8470993041992188
1.8317995071411133
1.8520992994308472
1.8249993324279785
1.9066991806030273
1.9498993158340454
1.9143993854522705
1.9747991561889648
2.0229992866516113
1.9146991968154907
1.9769994020462036
1.9171993732452393
1.941799283027649
1.9247993230819702
1.9536993503570557
1.958099365234375
1.9032992124557495
2.02609920501709
2.0338993072509766
2.044799327850342
2.066399335861206
2.0574991703033447
1.9919991493225098
2.1142990589141846
2.132599115371704
2.242698907852173
2.174499034881592
2.219299077987671
2.180399179458618
2.2124991416931152
2.2091989517211914
2.2399990558624268
2.126099109649658
2.1715991497039795
2.259099006652832
2.3288989067077637
2.244899034500122
2.349699020385742
2.341499090194702
2.289699077606201
2.3256990909576416
2.3736989498138428
2.4466989040374756
2.3522989749908447
2.396498918533325
2.4541988372802734
2.4665989875793457
2.4023990631103516
2.4920990467071533
2.444398880004883
2.38529896736145
2.4701988697052
2.4255988597869873
2.6125988960266113
2.6737987995147705
2.5465989112854004
2.5148987770080566
2.5460989475250244
2.5310988426208496
2.488898992538452
2.6099987030029297
2.6662988662719727
2.6281988620758057
2.6724987030029297
2.6703989505767822
2.719198703765869
2.791698694229126
2.761798620223999
2.7242987155914307
2.7666985988616943
2.7598986625671387
2.789198637008667
2.842498540878296
2.7939987182617188
2.7399988174438477
2.763298988342285
2.8188986778259277
2.8166985511779785
2.8423984050750732
2.8828985691070557
2.8594985008239746
3.006598472595215
3.0364983081817627
3.0086984634399414
2.91239857673645
2.8631985187530518
3.032998561859131
3.0566985607147217
3.0771985054016113
2.999098539352417
2.928898334503174
2.9996984004974365
2.9092986583709717
2.926098585128784
2.9700982570648193
3.051698684692383
3.0726983547210693
3.022698402404785
3.0245983600616455
3.078498601913452
2.893198251724243
2.9180986881256104
2.9899981021881104
3.125398635864258
3.1355981826782227
3.168898582458496
3.1719985008239746
3.125598430633545
3.036198377609253
3.1714982986450195
3.1645984649658203
3.07399845123291
3.080198287963867
3.219198226928711
3.4154982566833496
3.2601983547210693
3.1710987091064453
3.257798194885254
3.1756985187530518
3.144498348236084
3.09799861907959
3.163398504257202
3.1522982120513916
3.3664984703063965
3.3699984550476074
3.391998291015625
3.4219982624053955
3.4914984703063965
3.470698356628418
3.33499813079834
3.6082983016967773
3.4371984004974365
3.1328985691070557
3.19329833984375
3.2954983711242676
3.4008984565734863
3.1951982975006104
3.3987982273101807
3.4353983402252197
3.3962981700897217
3.527998447418213
3.5056982040405273
3.323498249053955
3.3011980056762695
3.5596981048583984
3.4670984745025635
3.453998327255249
3.4807982444763184
3.4635987281799316
3.589398145675659
3.652498245239258
3.4837985038757324
3.5955984592437744
3.4859981536865234
3.456498384475708
3.5128982067108154
3.6921982765197754
3.6656980514526367
3.8048980236053467
3.698798179626465
3.7110984325408936
3.8337981700897217
3.7740983963012695
3.7344982624053955
3.4786980152130127
3.429298162460327
3.476198196411133
3.569998264312744
3.7513983249664307
3.856898307800293
3.808298349380493
3.813098192214966
3.9827980995178223
4.0688982009887695
4.023298263549805
3.7396984100341797
3.4162981510162354
3.362898349761963
3.2892982959747314
3.3238983154296875
3.3642983436584473
3.520198345184326
3.490898370742798
3.471198081970215
3.6803982257843018
3.740598201751709
3.7381982803344727
3.8320980072021484
3.930298089981079
3.9134981632232666
3.7725982666015625
3.864398241043091
3.9346985816955566
4.028398513793945
4.126498222351074
3.9963982105255127
3.7700982093811035
3.997098445892334
3.950698137283325
3.6980981826782227
3.8198981285095215
4.108098030090332
4.2249979972839355
4.0984978675842285
4.20969820022583
4.476798057556152
4.201598167419434
3.963198184967041
3.980398178100586
4.082198619842529
4.2215986251831055
4.3228983879089355
4.335698127746582
4.377798080444336
4.195798397064209
4.207498073577881
4.267797946929932
4.628198146820068
4.722698211669922
4.597698211669922
4.728097915649414
4.592998027801514
4.543198108673096
4.804197788238525
4.779697895050049
4.613498210906982
4.789098262786865
4.5683979988098145
4.374298095703125
4.390897750854492
4.458998203277588
4.198398590087891
4.112598419189453
4.421798229217529
4.788098335266113
5.005098342895508
4.931498050689697
4.742598056793213
5.117697715759277
5.370398044586182
5.55819845199585
5.163798809051514
5.1998982429504395
5.137298583984375
5.0347981452941895
4.9214982986450195
5.023898124694824
5.465497970581055
5.526898384094238
5.271198272705078
4.930298328399658
4.837698459625244
5.15789794921875
5.318597793579102
5.174098014831543
5.053598403930664
5.197198390960693
5.332197666168213
5.089398384094238
5.061498165130615
5.103697776794434
5.346197605133057
5.298298358917236
5.0180983543396
5.098397731781006
5.614598274230957
5.211497783660889
5.222698211669922
5.380998611450195
5.171098232269287
5.334997653961182
5.322998046875
5.12319803237915
5.1634979248046875
5.360297679901123
5.410398006439209
5.380598068237305
5.429098129272461
5.556297779083252
5.511998176574707
5.4333977699279785
5.634498119354248
5.315298557281494
5.171298027038574
5.634798049926758
6.096097946166992
6.0999979972839355
5.596297740936279
5.543097972869873
5.4426984786987305
5.600898265838623
5.871298313140869
5.674398422241211
5.911497592926025
6.442897319793701
6.239297866821289
6.078798294067383
6.326998233795166
6.213098049163818
5.733997821807861
5.761598110198975
5.84699821472168
5.631698131561279
5.508697986602783
5.739098072052002
6.242597579956055
6.203797817230225
5.608298301696777
5.8153977394104
6.058098316192627
6.364297866821289
6.386898040771484
6.062498092651367
6.08529806137085
6.057098388671875
5.93189811706543
6.027897834777832
6.147597789764404
5.966297626495361
6.200597763061523
6.124298095703125
6.032998085021973
6.393497943878174
6.639698028564453
6.518997669219971
6.531198024749756
6.529298305511475
6.528797626495361
6.660898208618164
6.57459831237793
6.473897933959961
6.37349796295166
6.556398391723633
6.528298377990723
6.093098163604736
6.305197715759277
6.853398323059082
6.450297832489014
5.956698417663574
5.9097981452941895
5.96099853515625
6.447897911071777
6.302897930145264
6.2107977867126465
6.1385979652404785
5.968198299407959
5.987797737121582
6.110898017883301
6.3512983322143555
6.525497913360596
6.4958977699279785
6.296097278594971
6.174398422241211
6.275897979736328
6.493098258972168
6.195598125457764
6.006597995758057
6.17559814453125
6.138498306274414
6.160398006439209
6.445297718048096
6.543997764587402
6.713598251342773
6.734298229217529
6.660897731781006
6.466698169708252
6.030298233032227
5.890997886657715
5.9448981285095215
6.504797458648682
6.919598579406738
6.531198024749756
7.184798717498779
7.125798225402832
6.939798355102539
6.755397796630859
6.4662981033325195
6.397697925567627
6.23709774017334
6.3907976150512695
6.421898365020752
6.1524977684021
6.265097618103027
6.402797698974609
6.220598220825195
6.2882981300354
6.298597812652588
6.62919807434082
6.408797740936279
5.959197998046875
6.143597602844238
6.379298210144043
6.427998065948486
6.6410980224609375
6.595597743988037
6.5235981941223145
6.528398036956787
7.042397975921631
6.955698013305664
6.998798370361328
6.948198318481445
7.142998218536377
7.050898551940918
6.932397365570068
7.250497817993164
7.558197498321533
7.694198131561279
7.191298007965088
6.943597793579102
7.729298114776611
8.194197654724121
7.952197074890137
7.61239767074585
7.381298065185547
7.637198448181152
7.589898109436035
6.999497890472412
6.881097793579102
7.045297622680664
7.398498058319092
7.350197792053223
7.18599796295166
7.128398418426514
6.798298358917236
7.067797660827637
7.349897861480713
7.158697605133057
6.955197811126709
6.30059814453125
6.774598598480225
6.82969856262207
6.754298210144043
6.719798564910889
7.07769775390625
6.92399787902832
6.4834980964660645
6.506898403167725
6.833198070526123
6.932497501373291
7.177497386932373
7.256497859954834
7.103298187255859
7.031498432159424
6.956798076629639
6.958697319030762
6.726197719573975
6.815097808837891
6.742398262023926
6.842597484588623
7.059998035430908
7.2523980140686035
7.256197452545166
7.14179801940918
7.006197929382324
6.820698261260986
7.151998519897461
6.937498569488525
6.5583977699279785
6.940698146820068
7.427298069000244
7.492497444152832
7.980098247528076
7.689097881317139
7.031998157501221
6.989198207855225
7.230898380279541
7.397897720336914
7.651798248291016
8.085798263549805
8.014198303222656
7.569498062133789
7.417597770690918
7.200998306274414
7.092198371887207
7.448897838592529
7.78449821472168
7.832397937774658
7.730698108673096
7.935398101806641
7.774398326873779
7.770698070526123
8.077698707580566
7.639398097991943
7.702797889709473
7.861598014831543
7.640297889709473
7.271798133850098
7.146397590637207
7.471597671508789
7.372198104858398
6.8323974609375
7.033698081970215
7.462398052215576
7.8671979904174805
7.665597438812256
7.195197582244873
7.292397975921631
7.393497943878174
7.196798324584961
7.263298511505127
7.403697967529297
7.844898223876953
7.479897975921631
7.0676984786987305
7.136198043823242
7.610898494720459
7.762597560882568
7.730597972869873
7.683098316192627
7.92399787902832
7.592597484588623
7.1960978507995605
7.138198375701904
7.030598163604736
7.398698329925537
7.170098304748535
7.661697864532471
7.499898910522461
7.0805983543396
7.403997898101807
7.290398120880127
7.222597599029541
7.4856977462768555
7.238198280334473
7.194398403167725
7.035998344421387
6.98239803314209
7.090697765350342
7.058897495269775
6.933897495269775
7.088598251342773
7.106497764587402
6.921497821807861
7.079998016357422
7.3546977043151855
7.390097618103027
7.383497714996338
6.98239803314209
7.129398345947266
7.496998310089111
7.2326979637146
6.883398056030273
7.260698318481445
7.586798191070557
7.316798210144043
7.098198413848877
7.4109978675842285
7.387298583984375
7.660398483276367
7.427897930145264
7.075397968292236
7.502997875213623
7.740997791290283
7.242097854614258
7.624697685241699
7.514698028564453
7.854598522186279
7.487897872924805
7.549498081207275
7.590497970581055
7.22509765625
7.208897590637207
7.260898590087891
7.645998001098633
7.678098201751709
7.47799825668335
7.423598766326904
7.551598072052002
7.618597984313965
8.017997741699219
7.6012983322143555
7.221097946166992
7.694097995758057
7.747898101806641
7.848997592926025
7.538898468017578
7.845197677612305
7.885197639465332
7.376597881317139
7.187898635864258
6.932098388671875
7.115097522735596
7.454997539520264
7.5653977394104
7.866297721862793
7.600297927856445
7.072598457336426
7.0633978843688965
7.092897891998291
6.946598052978516
6.992897987365723
7.188997745513916
7.3387980461120605
6.652297496795654
6.366697788238525
7.350197792053223
7.325197696685791
7.053797721862793
6.858798027038574
6.8913984298706055
6.666297435760498
6.592998027801514
6.588997840881348
6.605898380279541
6.820898532867432
7.246397495269775
7.809298038482666
7.536998271942139
7.086597919464111
7.210397720336914
7.599997520446777
7.496497631072998
7.352198600769043
7.632697582244873
7.556998252868652
7.127198696136475
7.1278977394104
7.0805983543396
7.106497764587402
7.138098239898682
7.466598033905029
8.017297744750977
7.8469977378845215
7.618497848510742
8.066597938537598
8.388197898864746
8.104897499084473
8.308298110961914
8.216597557067871
8.252098083496094
8.8204984664917
8.620397567749023
8.524798393249512
8.614197731018066
8.508197784423828
8.377798080444336
8.605998039245605
8.728398323059082
8.50729751586914
8.352897644042969
8.186397552490234
8.238897323608398
8.145398139953613
8.30749797821045
8.398797988891602
8.296797752380371
8.047497749328613
8.47709846496582
8.364997863769531
7.952898025512695
8.09009838104248
8.447097778320312
8.65219783782959
8.213997840881348
8.41579818725586
8.887097358703613
8.645197868347168
8.418298721313477
8.848498344421387
8.572397232055664
8.172497749328613
8.366497993469238
8.750797271728516
8.319997787475586
8.154498100280762
8.678797721862793
8.767097473144531
8.005097389221191
7.74949836730957
8.072998046875
8.043098449707031
8.365797996520996
8.511797904968262
8.662898063659668
9.128497123718262
8.803297996520996
8.590397834777832
8.84689712524414
8.655797958374023
8.192697525024414
8.026297569274902
7.953897476196289
7.721597671508789
7.924698352813721
7.577298641204834
7.568697452545166
8.027498245239258
7.908998012542725
7.71879768371582
7.956097602844238
8.125998497009277
7.87319803237915
8.207697868347168
8.24319839477539
8.120098114013672
8.178197860717773
7.960197925567627
7.710698127746582
8.009897232055664
7.996998310089111
8.168198585510254
7.969898223876953
7.697998046875
7.923098087310791
8.026297569274902
7.624598503112793
7.760598182678223
8.401798248291016
8.526698112487793
8.542197227478027
8.415597915649414
8.007698059082031
7.682097911834717
8.058998107910156
8.195198059082031
8.319897651672363
8.371498107910156
8.287598609924316
8.024497985839844
7.5359978675842285
7.769897937774658
8.166897773742676
7.8394975662231445
7.723398208618164
8.167198181152344
8.099698066711426
8.125997543334961
7.430798530578613
7.457297325134277
7.7834978103637695
7.485397815704346
7.4757981300354
8.126797676086426
8.390997886657715
8.109197616577148
8.07809829711914
8.294398307800293
8.301797866821289
8.121598243713379
8.435097694396973
8.795997619628906
8.636397361755371
8.705097198486328
8.621498107910156
8.536297798156738
8.5281982421875
7.978997707366943
8.24439811706543
8.142897605895996
8.37919807434082
8.533997535705566
8.281998634338379
8.204797744750977
8.158997535705566
8.004796981811523
7.969598293304443
8.297198295593262
8.324797630310059
8.358798027038574
8.332898139953613
7.737897872924805
7.684498310089111
7.81759786605835
8.248197555541992
8.230998992919922
8.473298072814941
8.686197280883789
8.721497535705566
8.825997352600098
8.276397705078125
7.97799825668335
8.209997177124023
8.570697784423828
8.490097999572754
8.450798034667969
8.518198013305664
8.721397399902344
8.213598251342773
8.220698356628418
8.529598236083984
8.361798286437988
8.570697784423828
8.539597511291504
8.671298027038574
8.947897911071777
9.255497932434082
8.997398376464844
8.763097763061523
8.629298210144043
8.777997970581055
8.534997940063477
8.596498489379883
8.441598892211914
8.184398651123047
8.439998626708984
8.416997909545898
8.535798072814941
8.804898262023926
8.656198501586914
8.462098121643066
8.744097709655762
8.515998840332031
8.308597564697266
8.36719799041748
8.72729778289795
8.73139762878418
8.488897323608398
8.965197563171387
8.54429817199707
8.254197120666504
8.740898132324219
9.27599811553955
8.681998252868652
8.77659797668457
9.261197090148926
8.924497604370117
8.898397445678711
9.34029769897461
9.556497573852539
9.193198204040527
9.122797966003418
9.095897674560547
8.475996971130371
8.053797721862793
8.33849811553955
8.715997695922852
8.886497497558594
8.822498321533203
8.954097747802734
8.894598007202148
8.467597961425781
8.545197486877441
8.93599796295166
9.037097930908203
8.366598129272461
7.815598011016846
7.771297454833984
8.456498146057129
8.636497497558594
8.595097541809082
8.694798469543457
8.901798248291016
8.828797340393066
8.897997856140137
9.074398040771484
8.854598045349121
9.060998916625977
9.384598731994629
9.240497589111328
8.913397789001465
8.491998672485352
8.413498878479004
8.939598083496094
8.669598579406738
8.679298400878906
8.949797630310059
8.372697830200195
7.986698150634766
8.419797897338867
8.6600980758667
8.705997467041016
8.67599868774414
9.105097770690918
9.076297760009766
8.908397674560547
8.644497871398926
8.624598503112793
8.662297248840332
8.680798530578613
8.963797569274902
9.158397674560547
9.210297584533691
8.759998321533203
8.57079792022705
8.59539794921875
8.923798561096191
8.930197715759277
8.563898086547852
8.552397727966309
9.003897666931152
9.18189811706543
8.682997703552246
8.478597640991211
8.719799041748047
8.535597801208496
8.496898651123047
8.824097633361816
9.507597923278809
9.473197937011719
9.183197975158691
8.474998474121094
8.412297248840332
8.417597770690918
8.093497276306152
8.49119758605957
8.572897911071777
8.504898071289062
8.696497917175293
8.61999797821045
8.584197998046875
8.237998008728027
8.311897277832031
8.685197830200195
8.847497940063477
8.879398345947266
8.322598457336426
8.509098052978516
8.81159782409668
8.688097953796387
9.07869815826416
8.91889762878418
8.742298126220703
8.822298049926758
8.55569839477539
8.99219799041748
9.236597061157227
8.873798370361328
8.910297393798828
9.163797378540039
9.406298637390137
9.15939712524414
9.007698059082031
8.941397666931152
8.851898193359375
8.926697731018066
8.894698143005371
8.661297798156738
8.806198120117188
8.974098205566406
9.432197570800781
9.395698547363281
8.593498229980469
8.373897552490234
8.633398056030273
8.970597267150879
8.793098449707031
8.634398460388184
8.880197525024414
8.904498100280762
8.703997611999512
9.151798248291016
9.120798110961914
8.654997825622559
8.645598411560059
8.61149787902832
9.00259780883789
8.934298515319824
9.059898376464844
9.038798332214355
8.975698471069336
9.132798194885254
9.158897399902344
9.253397941589355
9.19639778137207
9.238398551940918
9.115497589111328
8.331698417663574
8.408297538757324
8.957998275756836
9.196598052978516
8.795798301696777
8.738997459411621
8.648597717285156
8.686297416687012
9.008498191833496
9.156098365783691
9.572198867797852
9.596697807312012
9.536297798156738
9.501097679138184
9.190497398376465
8.822797775268555
8.878397941589355
8.934497833251953
8.910597801208496
9.030597686767578
9.156598091125488
9.661798477172852
9.551097869873047
9.140097618103027
9.063397407531738
9.496896743774414
9.54549789428711
9.649598121643066
9.416297912597656
9.504897117614746
9.193897247314453
9.014098167419434
9.216897964477539
9.085797309875488
9.10989761352539
9.095897674560547
9.280198097229004
9.677197456359863
9.305997848510742
8.957497596740723
9.338997840881348
9.2452974319458
9.328598022460938
9.741397857666016
9.893498420715332
9.165497779846191
8.815897941589355
9.226597785949707
9.334797859191895
9.434098243713379
9.676597595214844
9.616297721862793
9.357196807861328
9.012598037719727
8.943697929382324
9.005797386169434
8.989097595214844
8.868098258972168
9.193597793579102
9.398397445678711
9.239097595214844
8.950697898864746
8.746397972106934
8.863398551940918
8.813097953796387
9.34539794921875
9.652497291564941
9.08439826965332
8.802397727966309
8.954297065734863
9.162097930908203
8.74849796295166
8.748398780822754
9.102897644042969
8.997398376464844
9.013797760009766
9.450397491455078
9.218398094177246
9.280997276306152
9.062397003173828
8.842297554016113
9.096797943115234
9.15789794921875
9.131697654724121
9.176097869873047
9.02029800415039
9.248198509216309
9.557697296142578
9.442997932434082
9.183697700500488
8.955097198486328
8.553498268127441
8.692797660827637
9.253698348999023
9.340797424316406
9.237297058105469
9.333398818969727
9.121698379516602
9.06789779663086
9.016998291015625
9.4808988571167
9.817697525024414
9.503397941589355
9.663697242736816
9.726397514343262
9.504298210144043
9.296897888183594
9.15829849243164
9.630197525024414
9.796197891235352
9.357297897338867
9.254298210144043
9.183697700500488
9.350698471069336
9.524598121643066
9.319498062133789
8.994297981262207
9.043397903442383
9.06789779663086
9.166797637939453
9.499897003173828
9.605697631835938
9.90279769897461
9.475397109985352
9.266397476196289
9.614097595214844
9.421097755432129
9.579097747802734
9.451498031616211
9.763998031616211
9.670697212219238
9.108798027038574
9.068198204040527
9.324697494506836
8.899297714233398
8.765897750854492
8.824197769165039
9.079697608947754
8.974798202514648
8.722198486328125
8.98019790649414
9.173297882080078
9.096297264099121
9.030597686767578
8.969298362731934
8.790197372436523
8.83969783782959
8.936898231506348
9.189698219299316
9.281798362731934
9.384998321533203
9.320198059082031
8.845097541809082
8.923297882080078
9.116698265075684
9.26009750366211
9.298598289489746
9.202497482299805
9.030198097229004
9.211398124694824
8.910597801208496
8.4056978225708
8.148998260498047
8.469498634338379
8.70269775390625
8.5223970413208
8.551398277282715
9.173498153686523
9.431297302246094
9.27709674835205
9.698596954345703
9.480498313903809
9.482797622680664
9.552497863769531
9.737797737121582
9.443497657775879
9.271597862243652
9.125097274780273
9.402597427368164
9.180697441101074
8.975698471069336
8.995197296142578
9.510297775268555
9.581897735595703
9.041398048400879
8.699197769165039
9.017297744750977
9.443097114562988
9.211297988891602
8.845197677612305
8.899598121643066
9.3323974609375
9.50259780883789
9.736798286437988
9.337898254394531
8.812697410583496
9.049997329711914
8.75989818572998
9.199798583984375
9.293998718261719
9.25729751586914
8.982598304748535
8.9858980178833
9.408797264099121
9.675097465515137
9.917198181152344
9.578797340393066
9.49319839477539
9.460097312927246
9.653697967529297
9.375597953796387
9.321698188781738
9.150398254394531
9.219198226928711
9.490198135375977
9.371698379516602
9.191998481750488
8.7333984375
8.468297958374023
8.547597885131836
8.670997619628906
8.764598846435547
8.97609806060791
8.973398208618164
8.703197479248047
8.812597274780273
9.145597457885742
9.344098091125488
9.597297668457031
9.34539794921875
9.295197486877441
9.538797378540039
9.811596870422363
9.31249713897705
8.929098129272461
9.5931978225708
10.013298034667969
9.713298797607422
9.519698143005371
9.575798034667969
9.60799789428711
9.208497047424316
9.050997734069824
9.189798355102539
9.212298393249512
9.239697456359863
9.359397888183594
9.517297744750977
9.598196983337402
9.322998046875
9.195097923278809
9.367998123168945
9.493997573852539
9.464298248291016
9.288697242736816
9.139698028564453
9.426297187805176
9.484097480773926
9.334897994995117
8.649397850036621
8.492297172546387
8.908798217773438
9.061798095703125
8.752798080444336
8.9183988571167
8.803498268127441
8.470097541809082
9.171998023986816
9.205297470092773
8.864997863769531
8.954398155212402
9.16479778289795
9.341897964477539
9.33439826965332
10.104897499084473
10.233997344970703
9.573596954345703
9.254697799682617
9.446798324584961
9.516098022460938
9.512497901916504
9.363397598266602
9.600398063659668
9.722698211669922
9.40059757232666
9.337597846984863
9.831698417663574
9.908197402954102
9.559698104858398
9.428498268127441
9.689297676086426
9.628498077392578
9.543298721313477
9.331398010253906
8.993997573852539
8.676898002624512
8.692797660827637
8.993797302246094
9.50539779663086
9.407297134399414
9.070598602294922
8.523797988891602
8.478797912597656
8.642498016357422
8.781698226928711
9.064197540283203
9.105298042297363
9.303498268127441
9.298797607421875
8.880097389221191
8.77149772644043
9.036397933959961
9.0306978225708
8.593297958374023
8.468297958374023
8.379697799682617
8.773998260498047
9.307897567749023
9.166498184204102
9.649197578430176
9.5306978225708
9.621698379516602
9.699897766113281
9.312897682189941
9.196698188781738
8.990497589111328
9.103198051452637
9.16259765625
9.135698318481445
9.483297348022461
9.521998405456543
9.173598289489746
9.207998275756836
9.143598556518555
8.8746976852417
8.729497909545898
8.690197944641113
9.098298072814941
9.421697616577148
9.758798599243164
9.084298133850098
8.8702974319458
9.23039722442627
8.876097679138184
9.088098526000977
8.948897361755371
8.811197280883789
8.787298202514648
9.02659797668457
8.888097763061523
8.40629768371582
8.59479808807373
9.231297492980957
8.829197883605957
8.582298278808594
8.623797416687012
9.018797874450684
8.702797889709473
8.512197494506836
9.105398178100586
9.195598602294922
9.023397445678711
9.047297477722168
8.673198699951172
8.842698097229004
9.001997947692871
8.8475980758667
8.699097633361816
8.746698379516602
8.637297630310059
8.80309772491455
8.793598175048828
8.650298118591309
8.755698204040527
8.779498100280762
8.575597763061523
8.621698379516602
9.104497909545898
8.902098655700684
8.752697944641113
8.758597373962402
8.966697692871094
8.970498085021973
9.175897598266602
9.122998237609863
8.744498252868652
8.531898498535156
8.827998161315918
9.102298736572266
8.904498100280762
8.468897819519043
8.414697647094727
8.80059814453125
9.047597885131836
8.812797546386719
8.30689811706543
8.204697608947754
8.53289794921875
8.599698066711426
8.454197883605957
8.679798126220703
8.293898582458496
8.483798027038574
8.756097793579102
8.86559772491455
8.92559814453125
9.177197456359863
8.776898384094238
8.756197929382324
9.293997764587402
9.386297225952148
8.613597869873047
8.245898246765137
8.320398330688477
8.633498191833496
8.615397453308105
9.073497772216797
9.255698204040527
9.145398139953613
9.364797592163086
9.195298194885254
9.402597427368164
9.264798164367676
8.590197563171387
9.045997619628906
9.01199722290039
9.08909797668457
9.460197448730469
9.753997802734375
9.92309856414795
9.484698295593262
9.097698211669922
9.074697494506836
9.173897743225098
9.179398536682129
9.391097068786621
9.57079792022705
9.59699821472168
9.54229736328125
9.121097564697266
9.360298156738281
9.604997634887695
8.948298454284668
9.119697570800781
9.293997764587402
9.507497787475586
9.695697784423828
9.604198455810547
9.731697082519531
9.181497573852539
9.019797325134277
8.98769760131836
9.407697677612305
9.21789836883545
8.581598281860352
8.684698104858398
9.098097801208496
9.171597480773926
9.34699821472168
9.623098373413086
8.955297470092773
8.888097763061523
9.500497817993164
9.284897804260254
8.905097961425781
8.809798240661621
8.806997299194336
8.998997688293457
8.687297821044922
8.734397888183594
8.774898529052734
9.024397850036621
9.399197578430176
9.358798027038574
8.936898231506348
9.05019760131836
9.153797149658203
9.570998191833496
9.713397979736328
9.015298843383789
8.78539752960205
8.995597839355469
8.86349868774414
9.154297828674316
9.592798233032227
9.612797737121582
9.188397407531738
9.70899772644043
9.673897743225098
9.279897689819336
8.942398071289062
8.875197410583496
8.973097801208496
8.9371976852417
9.024898529052734
8.960897445678711
8.97729778289795
