EpRewMean
0.9014084339141846
1.225000023841858
1.25
1.5750000476837158
1.475000023841858
1.125
1.149999976158142
1.274999976158142
1.2999999523162842
1.225000023841858
1.475000023841858
1.3250000476837158
1.625
1.5
1.600000023841858
1.5
2.0
1.875
1.6749999523162842
1.5
1.725000023841858
1.5750000476837158
1.5
1.6749999523162842
1.75
1.5499999523162842
1.5499999523162842
1.975000023841858
1.850000023841858
1.75
2.0250000953674316
1.774999976158142
2.25
1.6749999523162842
1.625
1.899999976158142
1.9249999523162842
1.7999999523162842
1.899999976158142
1.8250000476837158
1.7000000476837158
2.125
1.7000000476837158
1.9500000476837158
2.674999952316284
1.850000023841858
2.375
1.9249999523162842
2.200000047683716
1.75
1.975000023841858
1.9500000476837158
1.899999976158142
1.725000023841858
1.9249999523162842
1.875
2.0
2.0999999046325684
1.9500000476837158
1.9249999523162842
2.0
1.8250000476837158
1.9249999523162842
2.25
2.075000047683716
2.125
1.9500000476837158
1.975000023841858
1.75
1.600000023841858
1.600000023841858
2.200000047683716
2.0
1.875
2.200000047683716
1.75
1.7999999523162842
1.899999976158142
2.075000047683716
2.174999952316284
1.5499999523162842
1.975000023841858
2.1500000953674316
1.899999976158142
1.9500000476837158
1.774999976158142
2.174999952316284
1.899999976158142
2.0250000953674316
1.9500000476837158
2.299999952316284
1.649999976158142
1.774999976158142
2.25
2.174999952316284
1.9249999523162842
2.0250000953674316
2.1500000953674316
1.899999976158142
1.7999999523162842
1.774999976158142
1.9500000476837158
1.8250000476837158
1.899999976158142
1.9249999523162842
1.975000023841858
2.424999952316284
1.774999976158142
1.975000023841858
2.1500000953674316
2.0
2.0999999046325684
2.424999952316284
2.1500000953674316
2.375
2.549999952316284
2.375
2.375
2.1500000953674316
2.0999999046325684
2.2750000953674316
2.075000047683716
2.200000047683716
2.825000047683716
2.5999999046325684
1.774999976158142
2.4000000953674316
2.4000000953674316
2.174999952316284
2.25
2.4000000953674316
3.0999999046325684
3.049999952316284
2.924999952316284
3.200000047683716
3.6500000953674316
3.049999952316284
3.875
3.4749999046325684
3.549999952316284
3.7750000953674316
3.825000047683716
4.25
4.050000190734863
4.300000190734863
4.449999809265137
4.25
4.125
4.400000095367432
3.9000000953674316
4.0
4.425000190734863
4.25
4.025000095367432
4.800000190734863
4.275000095367432
4.375
4.25
4.375
4.675000190734863
4.525000095367432
4.650000095367432
5.449999809265137
4.875
5.400000095367432
5.025000095367432
5.175000190734863
5.125
5.349999904632568
5.074999809265137
4.849999904632568
5.400000095367432
5.375
5.550000190734863
5.775000095367432
5.625
6.074999809265137
5.75
6.050000190734863
6.074999809265137
5.925000190734863
5.75
5.625
5.824999809265137
6.125
6.099999904632568
5.724999904632568
5.625
5.525000095367432
5.775000095367432
5.699999809265137
5.824999809265137
5.5
5.900000095367432
6.75
6.25
6.300000190734863
7.074999809265137
6.550000190734863
6.375
6.25
6.800000190734863
6.875
6.699999809265137
6.675000190734863
7.175000190734863
7.125
6.625
7.349999904632568
7.300000190734863
7.199999809265137
6.75
7.525000095367432
7.150000095367432
7.099999904632568
6.800000190734863
7.150000095367432
7.349999904632568
7.400000095367432
7.449999809265137
7.699999809265137
7.275000095367432
7.099999904632568
7.400000095367432
7.599999904632568
6.900000095367432
6.974999904632568
7.574999809265137
7.199999809265137
7.800000190734863
8.125
7.75
7.675000190734863
7.775000095367432
8.25
8.300000190734863
7.875
8.199999809265137
7.974999904632568
7.449999809265137
7.449999809265137
7.849999904632568
7.625
7.650000095367432
7.349999904632568
7.599999904632568
7.75
7.449999809265137
7.0
7.074999809265137
6.724999904632568
6.625
7.050000190734863
6.949999809265137
7.125
7.324999809265137
7.275000095367432
7.375
7.349999904632568
7.849999904632568
7.375
7.699999809265137
8.024999618530273
7.699999809265137
7.974999904632568
8.149999618530273
8.0
8.175000190734863
8.449999809265137
8.225000381469727
8.125
8.125
8.425000190734863
8.175000190734863
8.274999618530273
7.974999904632568
8.100000381469727
8.350000381469727
8.550000190734863
8.274999618530273
7.800000190734863
8.324999809265137
8.175000190734863
7.900000095367432
8.0
8.175000190734863
7.949999809265137
8.024999618530273
8.050000190734863
8.475000381469727
8.225000381469727
8.324999809265137
8.300000190734863
7.949999809265137
8.524999618530273
8.475000381469727
8.425000190734863
8.274999618530273
8.425000190734863
8.175000190734863
8.300000190734863
8.625
8.149999618530273
8.375
8.149999618530273
8.399999618530273
8.300000190734863
8.25
8.75
8.425000190734863
8.199999809265137
8.024999618530273
8.350000381469727
8.175000190734863
8.125
8.25
8.5
8.449999809265137
8.199999809265137
8.5
8.399999618530273
8.475000381469727
8.649999618530273
8.774999618530273
8.175000190734863
8.274999618530273
8.350000381469727
8.449999809265137
8.600000381469727
8.699999809265137
8.5
8.524999618530273
8.399999618530273
8.425000190734863
8.375
8.199999809265137
8.225000381469727
8.399999618530273
8.600000381469727
8.399999618530273
8.125
8.25
8.675000190734863
8.475000381469727
8.625
8.350000381469727
8.425000190734863
8.850000381469727
8.125
8.399999618530273
8.375
8.300000190734863
8.375
8.449999809265137
8.524999618530273
8.574999809265137
8.675000190734863
8.449999809265137
8.649999618530273
8.475000381469727
8.5
8.225000381469727
8.399999618530273
8.225000381469727
8.425000190734863
8.524999618530273
8.75
8.300000190734863
8.425000190734863
8.449999809265137
8.375
8.600000381469727
8.600000381469727
8.300000190734863
8.524999618530273
8.25
8.050000190734863
8.225000381469727
8.449999809265137
8.524999618530273
8.125
8.625
8.425000190734863
8.550000190734863
8.100000381469727
8.675000190734863
8.074999809265137
8.524999618530273
9.0
8.0
8.324999809265137
8.175000190734863
8.375
8.449999809265137
7.900000095367432
8.225000381469727
8.300000190734863
8.375
8.350000381469727
8.375
8.600000381469727
8.675000190734863
8.699999809265137
8.25
8.175000190734863
8.625
8.625
8.725000381469727
8.350000381469727
8.524999618530273
8.574999809265137
8.149999618530273
8.725000381469727
8.5
8.649999618530273
8.5
8.324999809265137
8.375
8.800000190734863
8.675000190734863
8.699999809265137
8.774999618530273
8.449999809265137
8.449999809265137
8.550000190734863
8.625
8.475000381469727
8.699999809265137
8.699999809265137
8.574999809265137
8.949999809265137
8.949999809265137
9.100000381469727
8.850000381469727
8.375
8.899999618530273
8.550000190734863
8.774999618530273
8.425000190734863
8.75
8.824999809265137
8.975000381469727
8.699999809265137
8.800000190734863
8.925000190734863
8.925000190734863
8.875
8.5
8.625
8.75
8.675000190734863
8.675000190734863
8.850000381469727
8.675000190734863
8.625
8.925000190734863
9.050000190734863
9.074999809265137
9.100000381469727
8.925000190734863
8.774999618530273
9.024999618530273
8.649999618530273
8.949999809265137
8.699999809265137
8.975000381469727
8.5
9.024999618530273
8.949999809265137
8.600000381469727
8.574999809265137
8.850000381469727
8.824999809265137
9.100000381469727
8.800000190734863
8.800000190734863
8.949999809265137
8.899999618530273
8.75
8.925000190734863
8.699999809265137
8.725000381469727
8.975000381469727
8.725000381469727
8.949999809265137
8.725000381469727
8.725000381469727
9.225000381469727
8.824999809265137
9.100000381469727
8.824999809265137
8.524999618530273
9.100000381469727
9.149999618530273
8.975000381469727
9.024999618530273
9.050000190734863
9.100000381469727
9.050000190734863
8.649999618530273
9.225000381469727
8.899999618530273
8.975000381469727
8.675000190734863
8.824999809265137
9.199999809265137
8.774999618530273
8.5
9.050000190734863
8.925000190734863
8.800000190734863
9.024999618530273
9.100000381469727
9.175000190734863
8.850000381469727
9.074999809265137
8.925000190734863
9.175000190734863
9.0
8.875
8.925000190734863
8.899999618530273
8.850000381469727
9.125
8.899999618530273
9.074999809265137
8.850000381469727
8.774999618530273
8.550000190734863
8.774999618530273
8.850000381469727
8.774999618530273
8.800000190734863
9.074999809265137
8.649999618530273
8.550000190734863
8.350000381469727
8.949999809265137
8.875
8.975000381469727
9.100000381469727
8.699999809265137
8.649999618530273
8.75
8.75
8.850000381469727
9.074999809265137
8.75
8.949999809265137
9.149999618530273
8.850000381469727
8.824999809265137
9.125
8.975000381469727
8.899999618530273
8.899999618530273
8.75
8.675000190734863
8.925000190734863
8.925000190734863
9.024999618530273
9.050000190734863
8.875
8.949999809265137
9.024999618530273
8.699999809265137
9.024999618530273
9.074999809265137
8.899999618530273
9.050000190734863
9.149999618530273
8.875
8.850000381469727
8.850000381469727
8.875
9.050000190734863
9.225000381469727
9.024999618530273
9.125
8.949999809265137
9.074999809265137
8.625
8.975000381469727
8.975000381469727
9.125
9.0
9.050000190734863
9.100000381469727
8.824999809265137
8.899999618530273
9.024999618530273
8.824999809265137
8.975000381469727
8.899999618530273
8.899999618530273
9.074999809265137
9.125
8.850000381469727
8.949999809265137
9.175000190734863
9.100000381469727
9.175000190734863
9.074999809265137
9.125
9.199999809265137
8.975000381469727
9.100000381469727
9.175000190734863
9.149999618530273
9.149999618530273
8.925000190734863
9.199999809265137
9.149999618530273
8.975000381469727
9.300000190734863
9.225000381469727
9.375
8.850000381469727
9.274999618530273
9.024999618530273
9.149999618530273
8.925000190734863
8.899999618530273
9.399999618530273
9.0
8.899999618530273
9.050000190734863
9.225000381469727
8.949999809265137
8.975000381469727
8.975000381469727
9.199999809265137
9.25
9.175000190734863
9.149999618530273
8.975000381469727
9.199999809265137
8.975000381469727
9.25
9.074999809265137
8.899999618530273
9.100000381469727
9.225000381469727
8.925000190734863
9.375
9.375
9.225000381469727
9.300000190734863
9.274999618530273
9.300000190734863
9.100000381469727
9.399999618530273
9.300000190734863
9.175000190734863
9.100000381469727
9.350000381469727
9.449999809265137
9.225000381469727
9.300000190734863
9.074999809265137
9.225000381469727
9.399999618530273
9.300000190734863
9.050000190734863
9.324999809265137
8.925000190734863
9.25
8.925000190734863
9.024999618530273
9.0
9.024999618530273
9.050000190734863
8.899999618530273
8.949999809265137
9.274999618530273
8.975000381469727
9.074999809265137
9.199999809265137
9.100000381469727
9.25
9.050000190734863
9.0
9.0
9.125
9.300000190734863
9.074999809265137
9.100000381469727
8.899999618530273
9.024999618530273
9.0
8.800000190734863
9.399999618530273
9.149999618530273
9.274999618530273
8.949999809265137
8.800000190734863
8.949999809265137
9.100000381469727
8.875
9.100000381469727
8.774999618530273
8.824999809265137
9.125
8.850000381469727
8.875
8.949999809265137
8.949999809265137
8.675000190734863
8.949999809265137
8.875
8.949999809265137
8.574999809265137
9.100000381469727
9.100000381469727
9.0
9.100000381469727
9.0
8.975000381469727
8.949999809265137
8.925000190734863
9.100000381469727
9.0
9.199999809265137
9.0
8.800000190734863
9.199999809265137
9.199999809265137
8.975000381469727
9.074999809265137
9.199999809265137
8.925000190734863
9.074999809265137
8.975000381469727
9.0
9.100000381469727
9.074999809265137
8.925000190734863
8.875
9.024999618530273
8.925000190734863
8.774999618530273
9.0
9.149999618530273
9.125
8.875
9.175000190734863
9.100000381469727
9.199999809265137
8.975000381469727
9.149999618530273
8.925000190734863
9.199999809265137
9.074999809265137
9.199999809265137
9.074999809265137
9.199999809265137
9.100000381469727
9.100000381469727
9.149999618530273
9.375
9.024999618530273
9.324999809265137
9.024999618530273
9.175000190734863
9.074999809265137
9.324999809265137
9.550000190734863
9.050000190734863
9.050000190734863
9.300000190734863
9.100000381469727
9.300000190734863
8.925000190734863
8.875
9.175000190734863
9.324999809265137
9.225000381469727
9.100000381469727
9.199999809265137
9.475000381469727
9.199999809265137
9.024999618530273
9.125
9.199999809265137
9.375
9.350000381469727
9.050000190734863
9.175000190734863
9.024999618530273
9.199999809265137
9.449999809265137
9.024999618530273
9.100000381469727
8.975000381469727
9.074999809265137
9.125
9.074999809265137
9.225000381469727
9.25
9.350000381469727
9.25
9.324999809265137
9.274999618530273
9.274999618530273
9.350000381469727
9.300000190734863
9.324999809265137
9.0
9.324999809265137
9.149999618530273
9.100000381469727
9.375
9.225000381469727
9.274999618530273
9.449999809265137
9.100000381469727
9.149999618530273
8.899999618530273
9.375
9.475000381469727
9.449999809265137
9.125
9.350000381469727
9.399999618530273
9.425000190734863
9.225000381469727
9.375
9.199999809265137
9.225000381469727
9.100000381469727
9.375
9.324999809265137
9.175000190734863
9.199999809265137
9.0
9.050000190734863
9.074999809265137
9.25
8.899999618530273
8.925000190734863
9.199999809265137
9.225000381469727
8.875
9.425000190734863
9.25
9.324999809265137
9.350000381469727
9.0
9.475000381469727
9.225000381469727
9.199999809265137
9.274999618530273
9.225000381469727
9.125
9.324999809265137
9.300000190734863
9.399999618530273
9.149999618530273
9.375
9.25
9.0
9.100000381469727
9.274999618530273
9.175000190734863
9.074999809265137
8.949999809265137
9.100000381469727
9.050000190734863
9.0
8.850000381469727
9.100000381469727
9.399999618530273
9.300000190734863
9.375
9.225000381469727
9.100000381469727
9.25
9.274999618530273
9.225000381469727
9.300000190734863
9.274999618530273
9.274999618530273
8.975000381469727
9.149999618530273
9.324999809265137
9.175000190734863
9.350000381469727
9.350000381469727
9.5
9.324999809265137
9.300000190734863
9.175000190734863
9.199999809265137
9.199999809265137
9.149999618530273
9.024999618530273
9.225000381469727
9.425000190734863
9.274999618530273
9.524999618530273
9.425000190734863
9.399999618530273
9.524999618530273
9.524999618530273
9.300000190734863
9.225000381469727
9.5
9.399999618530273
9.574999809265137
9.074999809265137
9.225000381469727
9.574999809265137
9.225000381469727
9.375
9.300000190734863
9.074999809265137
9.225000381469727
9.25
9.25
9.25
9.25
9.300000190734863
9.024999618530273
9.125
9.175000190734863
9.25
9.050000190734863
9.300000190734863
9.225000381469727
9.199999809265137
9.100000381469727
9.199999809265137
9.274999618530273
9.100000381469727
9.100000381469727
9.300000190734863
9.324999809265137
9.149999618530273
8.800000190734863
9.175000190734863
9.274999618530273
9.175000190734863
9.324999809265137
9.25
9.350000381469727
9.375
9.300000190734863
9.125
9.225000381469727
9.225000381469727
9.350000381469727
8.949999809265137
9.425000190734863
9.199999809265137
9.550000190734863
9.350000381469727
9.375
9.324999809265137
9.324999809265137
9.324999809265137
9.050000190734863
9.5
9.399999618530273
9.125
9.225000381469727
9.274999618530273
9.274999618530273
9.425000190734863
9.425000190734863
9.225000381469727
9.475000381469727
9.550000190734863
9.425000190734863
9.25
9.449999809265137
9.324999809265137
9.550000190734863
9.324999809265137
9.375
9.324999809265137
9.324999809265137
9.449999809265137
9.524999618530273
9.425000190734863
9.399999618530273
9.524999618530273
9.324999809265137
9.550000190734863
9.425000190734863
9.425000190734863
9.350000381469727
9.550000190734863
9.324999809265137
9.399999618530273
9.449999809265137
9.324999809265137
9.300000190734863
9.274999618530273
9.449999809265137
9.399999618530273
9.449999809265137
9.475000381469727
9.574999809265137
9.425000190734863
9.199999809265137
9.199999809265137
9.274999618530273
9.574999809265137
9.475000381469727
9.475000381469727
9.425000190734863
9.274999618530273
9.425000190734863
9.574999809265137
9.425000190734863
9.425000190734863
9.399999618530273
9.574999809265137
9.675000190734863
9.375
9.350000381469727
9.425000190734863
9.199999809265137
9.100000381469727
9.199999809265137
9.125
9.274999618530273
9.050000190734863
9.125
9.225000381469727
9.300000190734863
9.375
9.149999618530273
9.100000381469727
9.175000190734863
8.949999809265137
9.199999809265137
9.274999618530273
9.100000381469727
9.425000190734863
9.125
9.300000190734863
8.899999618530273
9.324999809265137
9.074999809265137
8.975000381469727
9.175000190734863
9.149999618530273
9.175000190734863
9.399999618530273
9.300000190734863
9.300000190734863
9.050000190734863
9.550000190734863
9.375
9.550000190734863
9.375
9.375
9.199999809265137
9.399999618530273
9.199999809265137
9.225000381469727
9.25
9.5
9.324999809265137
9.25
9.274999618530273
9.350000381469727
9.175000190734863
9.050000190734863
9.199999809265137
9.175000190734863
9.225000381469727
9.300000190734863
9.125
8.925000190734863
9.324999809265137
9.175000190734863
9.300000190734863
9.125
9.25
9.5
9.375
9.175000190734863
9.25
9.225000381469727
9.300000190734863
9.550000190734863
9.274999618530273
9.274999618530273
9.25
9.225000381469727
9.324999809265137
9.199999809265137
9.25
9.324999809265137
9.25
9.175000190734863
9.375
9.149999618530273
9.399999618530273
9.399999618530273
9.5
9.324999809265137
9.25
9.5
9.574999809265137
9.5
9.300000190734863
9.475000381469727
9.350000381469727
9.425000190734863
9.475000381469727
9.524999618530273
9.425000190734863
9.324999809265137
9.324999809265137
9.574999809265137
9.475000381469727
9.574999809265137
9.425000190734863
9.375
9.574999809265137
9.225000381469727
9.324999809265137
9.449999809265137
9.475000381469727
9.5
9.350000381469727
9.5
9.25
9.324999809265137
9.324999809265137
9.375
9.324999809265137
9.475000381469727
9.625
9.25
9.274999618530273
9.5
9.524999618530273
9.524999618530273
9.449999809265137
9.175000190734863
9.574999809265137
9.149999618530273
9.199999809265137
9.574999809265137
9.449999809265137
9.25
9.550000190734863
9.475000381469727
9.274999618530273
9.324999809265137
9.449999809265137
9.300000190734863
9.25
9.125
9.274999618530273
9.550000190734863
9.350000381469727
9.5
9.199999809265137
9.5
9.449999809265137
9.375
9.399999618530273
9.524999618530273
9.274999618530273
9.375
9.375
9.25
9.300000190734863
9.050000190734863
9.324999809265137
9.324999809265137
9.25
9.125
9.274999618530273
9.175000190734863
9.324999809265137
9.449999809265137
9.449999809265137
9.225000381469727
9.25
9.25
9.300000190734863
9.449999809265137
9.399999618530273
9.550000190734863
9.350000381469727
9.449999809265137
9.425000190734863
9.199999809265137
9.475000381469727
9.350000381469727
9.300000190734863
9.300000190734863
9.300000190734863
9.425000190734863
9.350000381469727
9.350000381469727
9.350000381469727
9.175000190734863
9.100000381469727
9.425000190734863
9.574999809265137
9.399999618530273
9.449999809265137
9.675000190734863
9.524999618530273
9.225000381469727
9.5
9.175000190734863
9.425000190734863
9.225000381469727
9.225000381469727
9.399999618530273
9.5
9.274999618530273
9.625
9.375
9.175000190734863
9.350000381469727
9.425000190734863
9.574999809265137
9.449999809265137
9.274999618530273
9.350000381469727
9.324999809265137
9.574999809265137
9.449999809265137
9.274999618530273
9.350000381469727
9.475000381469727
9.475000381469727
9.5
9.375
9.524999618530273
9.324999809265137
9.399999618530273
9.25
9.375
9.449999809265137
9.350000381469727
9.5
9.399999618530273
9.425000190734863
9.550000190734863
9.399999618530273
9.449999809265137
9.574999809265137
9.600000381469727
9.300000190734863
9.625
9.524999618530273
9.425000190734863
9.449999809265137
9.524999618530273
9.425000190734863
9.399999618530273
9.225000381469727
9.550000190734863
9.399999618530273
9.375
9.449999809265137
9.425000190734863
9.274999618530273
9.475000381469727
9.300000190734863
9.475000381469727
9.399999618530273
9.425000190734863
9.475000381469727
9.350000381469727
9.425000190734863
9.274999618530273
9.399999618530273
9.574999809265137
9.574999809265137
9.300000190734863
9.225000381469727
9.449999809265137
9.574999809265137
9.274999618530273
9.274999618530273
9.550000190734863
9.550000190734863
9.625
9.149999618530273
9.425000190734863
9.5
9.449999809265137
9.550000190734863
9.300000190734863
9.425000190734863
9.550000190734863
9.600000381469727
9.25
9.550000190734863
9.425000190734863
9.449999809265137
9.199999809265137
9.375
9.425000190734863
9.350000381469727
9.550000190734863
9.25
9.399999618530273
9.425000190734863
9.524999618530273
9.350000381469727
9.375
9.399999618530273
9.399999618530273
9.574999809265137
9.475000381469727
9.600000381469727
9.425000190734863
9.375
9.425000190734863
9.324999809265137
9.350000381469727
9.425000190734863
9.350000381469727
9.449999809265137
9.300000190734863
9.524999618530273
9.399999618530273
9.524999618530273
9.274999618530273
9.300000190734863
9.375
9.625
9.324999809265137
9.300000190734863
9.574999809265137
9.324999809265137
9.425000190734863
9.225000381469727
9.449999809265137
9.5
9.574999809265137
9.425000190734863
9.375
9.399999618530273
9.475000381469727
9.399999618530273
9.350000381469727
9.375
9.274999618530273
9.125
9.524999618530273
9.375
9.550000190734863
9.475000381469727
9.324999809265137
9.274999618530273
9.399999618530273
9.274999618530273
9.5
9.649999618530273
9.399999618530273
9.5
9.350000381469727
9.149999618530273
9.399999618530273
9.524999618530273
9.449999809265137
9.5
9.425000190734863
9.149999618530273
9.5
9.524999618530273
9.375
9.425000190734863
9.399999618530273
9.449999809265137
9.600000381469727
9.375
9.449999809265137
9.5
9.449999809265137
9.5
9.324999809265137
9.149999618530273
9.574999809265137
9.399999618530273
9.5
9.375
9.25
9.399999618530273
9.649999618530273
9.425000190734863
9.300000190734863
9.375
9.350000381469727
9.600000381469727
9.324999809265137
9.524999618530273
9.5
9.574999809265137
9.449999809265137
9.524999618530273
9.524999618530273
9.425000190734863
9.550000190734863
9.574999809265137
9.324999809265137
9.449999809265137
9.399999618530273
9.5
9.199999809265137
9.25
9.225000381469727
9.600000381469727
9.524999618530273
9.350000381469727
9.5
9.725000381469727
9.449999809265137
9.449999809265137
9.274999618530273
9.25
9.324999809265137
9.449999809265137
9.399999618530273
9.550000190734863
9.175000190734863
9.550000190734863
9.5
9.274999618530273
9.300000190734863
9.300000190734863
9.5
9.324999809265137
9.375
9.350000381469727
9.649999618530273
9.375
9.274999618530273
9.449999809265137
9.574999809265137
9.550000190734863
9.375
9.425000190734863
9.449999809265137
9.574999809265137
9.449999809265137
9.625
9.524999618530273
9.699999809265137
9.350000381469727
9.574999809265137
9.5
9.449999809265137
9.300000190734863
9.524999618530273
9.475000381469727
9.600000381469727
9.5
9.274999618530273
9.425000190734863
9.375
9.475000381469727
9.425000190734863
9.149999618530273
9.5
9.399999618530273
9.425000190734863
9.274999618530273
9.25
9.199999809265137
9.350000381469727
9.199999809265137
9.225000381469727
8.899999618530273
9.350000381469727
9.25
9.399999618530273
9.475000381469727
9.350000381469727
9.199999809265137
9.324999809265137
9.524999618530273
9.574999809265137
9.300000190734863
9.399999618530273
9.425000190734863
9.449999809265137
9.050000190734863
9.375
9.675000190734863
9.524999618530273
9.475000381469727
9.600000381469727
9.425000190734863
9.425000190734863
9.5
9.449999809265137
9.25
9.524999618530273
9.600000381469727
9.350000381469727
9.550000190734863
9.350000381469727
9.475000381469727
9.5
9.524999618530273
9.475000381469727
9.475000381469727
9.574999809265137
9.524999618530273
9.300000190734863
9.449999809265137
9.524999618530273
9.425000190734863
9.524999618530273
9.625
9.574999809265137
9.475000381469727
9.475000381469727
9.350000381469727
9.25
9.449999809265137
9.449999809265137
