EpRewMean
2.076923131942749
2.0078125
1.9246376752853394
1.5175000429153442
1.1050000190734863
1.502500057220459
1.622499942779541
1.6950000524520874
1.4824999570846558
1.502500057220459
1.4574999809265137
1.4325000047683716
1.2675000429153442
1.4175000190734863
1.3899999856948853
1.412500023841858
1.3574999570846558
1.475000023841858
1.6749999523162842
1.559999942779541
1.3899999856948853
1.2174999713897705
1.3049999475479126
1.3350000381469727
1.3550000190734863
1.2799999713897705
1.3825000524520874
1.184999942779541
1.100000023841858
1.122499942779541
1.2899999618530273
1.409999966621399
1.5075000524520874
1.2925000190734863
1.162500023841858
1.2000000476837158
1.4275000095367432
1.4850000143051147
1.3949999809265137
1.1699999570846558
1.1699999570846558
1.3200000524520874
1.6200000047683716
1.9325000047683716
1.9800000190734863
1.5850000381469727
1.4225000143051147
1.3025000095367432
1.4800000190734863
1.5299999713897705
1.6074999570846558
1.4049999713897705
1.184999942779541
1.3250000476837158
1.3300000429153442
1.2324999570846558
1.1575000286102295
1.315000057220459
1.3424999713897705
1.3025000095367432
1.6675000190734863
1.787500023841858
1.8350000381469727
1.6325000524520874
1.5399999618530273
1.7100000381469727
2.072499990463257
1.809999942779541
1.9474999904632568
2.390000104904175
2.819999933242798
2.615000009536743
2.384999990463257
1.9175000190734863
1.9574999809265137
2.2799999713897705
2.424999952316284
2.2125000953674316
2.3450000286102295
2.632499933242798
2.2325000762939453
2.1675000190734863
2.4000000953674316
2.1075000762939453
2.565000057220459
2.700000047683716
2.315000057220459
2.2725000381469727
2.569999933242798
2.6600000858306885
2.575000047683716
2.6575000286102295
2.9124999046325684
2.8350000381469727
2.8375000953674316
2.7174999713897705
2.747499942779541
2.5924999713897705
2.512500047683716
2.6475000381469727
2.5374999046325684
2.317500114440918
2.757499933242798
3.065000057220459
3.2274999618530273
3.2174999713897705
3.3499999046325684
3.177500009536743
2.684999942779541
2.612499952316284
3.0924999713897705
3.049999952316284
2.9049999713897705
2.994999885559082
2.744999885559082
2.7725000381469727
3.322499990463257
3.2750000953674316
2.8324999809265137
2.8949999809265137
2.984999895095825
3.3524999618530273
3.692500114440918
3.2125000953674316
3.3975000381469727
3.619999885559082
3.122499942779541
3.3924999237060547
3.690000057220459
3.2074999809265137
3.3499999046325684
3.112499952316284
3.877500057220459
3.7225000858306885
3.9749999046325684
3.6475000381469727
4.019999980926514
3.884999990463257
3.817500114440918
3.872499942779541
4.15500020980835
3.8450000286102295
4.077499866485596
3.759999990463257
3.950000047683716
3.8475000858306885
3.7249999046325684
3.924999952316284
3.630000114440918
4.199999809265137
4.302499771118164
4.039999961853027
3.75
3.8375000953674316
4.144999980926514
4.289999961853027
4.635000228881836
4.232500076293945
4.232500076293945
4.460000038146973
5.002500057220459
5.21750020980835
4.737500190734863
4.742499828338623
4.757500171661377
5.177499771118164
4.739999771118164
4.862500190734863
4.882500171661377
4.452499866485596
4.502500057220459
4.920000076293945
5.099999904632568
5.244999885559082
5.505000114440918
5.610000133514404
5.322500228881836
5.527500152587891
5.15500020980835
5.257500171661377
5.177499771118164
5.65500020980835
5.727499961853027
5.872499942779541
5.735000133514404
5.737500190734863
5.664999961853027
5.53249979019165
5.840000152587891
5.875
5.460000038146973
5.712500095367432
5.622499942779541
5.307499885559082
5.255000114440918
5.807499885559082
5.980000019073486
5.355000019073486
5.21999979019165
5.71999979019165
5.760000228881836
5.482500076293945
5.360000133514404
4.96999979019165
5.635000228881836
5.159999847412109
5.264999866485596
5.369999885559082
5.454999923706055
5.987500190734863
6.284999847412109
5.602499961853027
5.59250020980835
5.947500228881836
5.909999847412109
6.287499904632568
6.337500095367432
5.932499885559082
6.192500114440918
6.179999828338623
6.182499885559082
6.139999866485596
6.012499809265137
5.987500190734863
5.762499809265137
5.989999771118164
5.997499942779541
6.295000076293945
6.3125
6.065000057220459
6.105000019073486
6.414999961853027
6.605000019073486
6.652500152587891
7.0625
6.84499979019165
6.567500114440918
6.352499961853027
6.737500190734863
7.227499961853027
6.622499942779541
6.414999961853027
6.932499885559082
6.835000038146973
7.125
7.142499923706055
6.445000171661377
7.204999923706055
6.570000171661377
7.440000057220459
7.307499885559082
7.590000152587891
7.434999942779541
7.102499961853027
7.052499771118164
6.897500038146973
7.114999771118164
7.090000152587891
7.132500171661377
6.880000114440918
7.079999923706055
6.954999923706055
7.012499809265137
7.1875
7.059999942779541
7.007500171661377
7.412499904632568
8.1875
7.672500133514404
7.507500171661377
7.817500114440918
7.619999885559082
7.347499847412109
7.400000095367432
7.607500076293945
7.840000152587891
7.607500076293945
7.862500190734863
7.695000171661377
7.527500152587891
7.927499771118164
8.1875
7.550000190734863
7.855000019073486
7.574999809265137
7.987500190734863
8.154999732971191
7.985000133514404
7.800000190734863
8.3725004196167
7.824999809265137
8.385000228881836
8.399999618530273
8.612500190734863
8.537500381469727
8.550000190734863
8.287500381469727
8.632499694824219
8.5625
8.792499542236328
8.694999694824219
9.050000190734863
8.569999694824219
8.029999732971191
8.199999809265137
8.720000267028809
8.232500076293945
8.65250015258789
8.557499885559082
8.970000267028809
8.75
8.864999771118164
8.952500343322754
8.845000267028809
9.145000457763672
9.074999809265137
8.862500190734863
9.172499656677246
9.15250015258789
9.154999732971191
9.460000038146973
9.425000190734863
9.302499771118164
9.067500114440918
9.287500381469727
9.029999732971191
8.737500190734863
9.164999961853027
9.6899995803833
9.46500015258789
8.827500343322754
8.682499885559082
8.947500228881836
9.125
8.699999809265137
8.917499542236328
9.082500457763672
8.90999984741211
8.65999984741211
8.805000305175781
8.65250015258789
8.9975004196167
9.102499961853027
9.09749984741211
8.90999984741211
8.960000038146973
8.640000343322754
8.72249984741211
9.010000228881836
8.835000038146973
8.645000457763672
8.957500457763672
8.760000228881836
8.692500114440918
8.880000114440918
9.067500114440918
9.352499961853027
9.020000457763672
9.117500305175781
9.482500076293945
9.3149995803833
8.984999656677246
8.920000076293945
9.052499771118164
9.282500267028809
9.255000114440918
9.137499809265137
9.555000305175781
9.592499732971191
9.1274995803833
8.787500381469727
9.21500015258789
9.237500190734863
9.197500228881836
9.100000381469727
9.244999885559082
8.97249984741211
9.175000190734863
9.6850004196167
9.237500190734863
9.210000038146973
9.239999771118164
9.239999771118164
9.135000228881836
9.2475004196167
9.3125
9.010000228881836
9.0
9.167499542236328
9.2524995803833
9.172499656677246
9.154999732971191
9.194999694824219
9.1899995803833
9.055000305175781
9.022500038146973
9.197500228881836
9.532500267028809
9.755000114440918
9.25
9.442500114440918
9.725000381469727
9.680000305175781
9.417499542236328
9.619999885559082
9.460000038146973
9.632499694824219
9.789999961853027
9.702500343322754
9.520000457763672
8.90250015258789
9.542499542236328
9.354999542236328
8.97249984741211
8.984999656677246
9.274999618530273
9.72249984741211
9.322500228881836
9.432499885559082
9.425000190734863
9.34000015258789
9.9375
9.75
9.682499885559082
9.947500228881836
9.742500305175781
9.537500381469727
9.462499618530273
9.667499542236328
9.977499961853027
9.882499694824219
9.859999656677246
9.744999885559082
9.337499618530273
9.607500076293945
9.787500381469727
9.65250015258789
9.307499885559082
9.8100004196167
9.770000457763672
9.447500228881836
9.762499809265137
9.369999885559082
9.032500267028809
9.1899995803833
9.667499542236328
9.579999923706055
9.649999618530273
9.199999809265137
9.130000114440918
8.9975004196167
9.074999809265137
9.022500038146973
8.7475004196167
9.022500038146973
9.15999984741211
9.387499809265137
9.637499809265137
9.137499809265137
9.204999923706055
9.337499618530273
9.729999542236328
10.067500114440918
9.9350004196167
9.577500343322754
9.380000114440918
9.805000305175781
9.612500190734863
9.452500343322754
9.287500381469727
9.107500076293945
9.767499923706055
10.114999771118164
9.954999923706055
9.920000076293945
9.925000190734863
9.9399995803833
9.569999694824219
9.772500038146973
9.907500267028809
9.917499542236328
10.010000228881836
9.8725004196167
9.637499809265137
9.797499656677246
9.789999961853027
9.792499542236328
9.727499961853027
9.914999961853027
9.672499656677246
9.912500381469727
10.197500228881836
9.760000228881836
9.954999923706055
9.845000267028809
9.7475004196167
9.792499542236328
9.670000076293945
9.824999809265137
9.739999771118164
9.454999923706055
9.774999618530273
9.737500190734863
9.767499923706055
9.9399995803833
10.175000190734863
9.895000457763672
9.9350004196167
9.765000343322754
10.182499885559082
10.270000457763672
10.244999885559082
9.927499771118164
9.697500228881836
9.677499771118164
10.020000457763672
9.782500267028809
9.975000381469727
9.9975004196167
10.342499732971191
9.920000076293945
9.682499885559082
9.637499809265137
9.694999694824219
9.6875
9.682499885559082
10.262499809265137
9.887499809265137
9.755000114440918
10.069999694824219
10.3125
9.880000114440918
10.265000343322754
9.952500343322754
10.454999923706055
10.192500114440918
10.079999923706055
10.15999984741211
10.34749984741211
10.022500038146973
10.489999771118164
9.779999732971191
10.130000114440918
9.992500305175781
9.710000038146973
10.042499542236328
9.6899995803833
9.887499809265137
10.199999809265137
10.4375
10.3725004196167
10.302499771118164
10.477499961853027
10.337499618530273
9.970000267028809
10.175000190734863
10.0649995803833
9.737500190734863
9.295000076293945
9.827500343322754
9.907500267028809
9.869999885559082
10.210000038146973
9.892499923706055
9.510000228881836
9.59749984741211
9.862500190734863
9.742500305175781
10.239999771118164
10.079999923706055
9.782500267028809
10.470000267028809
10.420000076293945
10.170000076293945
9.72249984741211
10.225000381469727
10.055000305175781
9.9350004196167
10.020000457763672
10.0649995803833
9.9975004196167
10.135000228881836
9.842499732971191
10.077500343322754
10.234999656677246
9.662500381469727
9.737500190734863
10.015000343322754
10.077500343322754
9.829999923706055
9.827500343322754
9.632499694824219
9.7475004196167
9.52750015258789
9.914999961853027
10.132499694824219
9.77750015258789
9.479999542236328
9.854999542236328
10.202500343322754
10.1899995803833
10.1899995803833
10.180000305175781
9.807499885559082
9.614999771118164
10.047499656677246
10.262499809265137
10.305000305175781
10.079999923706055
9.694999694824219
10.322500228881836
10.010000228881836
10.024999618530273
10.15250015258789
10.09749984741211
10.024999618530273
9.762499809265137
10.202500343322754
10.167499542236328
10.297499656677246
9.912500381469727
10.300000190734863
10.142499923706055
10.227499961853027
9.967499732971191
10.180000305175781
10.242500305175781
10.427499771118164
10.175000190734863
9.739999771118164
9.737500190734863
10.359999656677246
10.52750015258789
10.177499771118164
9.887499809265137
10.305000305175781
10.352499961853027
10.102499961853027
9.96500015258789
9.922499656677246
9.75
9.702500343322754
9.920000076293945
9.867500305175781
9.920000076293945
10.042499542236328
9.720000267028809
9.835000038146973
10.015000343322754
10.329999923706055
10.609999656677246
10.829999923706055
9.864999771118164
10.037500381469727
10.182499885559082
10.524999618530273
10.447500228881836
10.109999656677246
10.0649995803833
10.164999961853027
10.149999618530273
9.967499732971191
10.012499809265137
10.0600004196167
9.574999809265137
10.039999961853027
10.40999984741211
10.40250015258789
10.770000457763672
10.5600004196167
10.680000305175781
10.522500038146973
10.182499885559082
10.149999618530273
10.422499656677246
10.362500190734863
10.047499656677246
9.904999732971191
9.875
10.40999984741211
10.282500267028809
10.34749984741211
9.979999542236328
10.207500457763672
10.289999961853027
10.3125
10.175000190734863
10.042499542236328
10.574999809265137
10.194999694824219
10.164999961853027
10.092499732971191
10.074999809265137
10.302499771118164
10.1899995803833
10.057499885559082
10.3125
10.039999961853027
10.242500305175781
10.239999771118164
10.085000038146973
10.582500457763672
10.364999771118164
10.390000343322754
10.052499771118164
10.452500343322754
10.170000076293945
10.0649995803833
10.03499984741211
10.229999542236328
9.930000305175781
9.742500305175781
9.890000343322754
9.875
10.1899995803833
10.300000190734863
9.944999694824219
9.824999809265137
9.774999618530273
10.1225004196167
10.100000381469727
9.827500343322754
9.807499885559082
10.0024995803833
9.914999961853027
9.987500190734863
10.385000228881836
10.295000076293945
10.6875
10.452500343322754
10.3125
10.227499961853027
10.180000305175781
10.3100004196167
10.132499694824219
9.917499542236328
10.162500381469727
9.797499656677246
10.109999656677246
10.737500190734863
10.2524995803833
10.625
10.375
10.602499961853027
10.555000305175781
10.52750015258789
10.337499618530273
10.47249984741211
10.482500076293945
10.5600004196167
10.449999809265137
10.382499694824219
10.569999694824219
10.100000381469727
9.8100004196167
10.274999618530273
10.27750015258789
9.994999885559082
10.0
10.082500457763672
10.03499984741211
10.244999885559082
10.300000190734863
9.952500343322754
9.680000305175781
10.052499771118164
10.167499542236328
9.8149995803833
9.484999656677246
9.632499694824219
9.920000076293945
9.90250015258789
9.914999961853027
9.732500076293945
9.729999542236328
9.757499694824219
9.920000076293945
10.012499809265137
10.237500190734863
10.367500305175781
10.192500114440918
9.97249984741211
9.912500381469727
10.350000381469727
10.467499732971191
10.417499542236328
10.220000267028809
10.267499923706055
10.425000190734863
10.074999809265137
10.40250015258789
10.367500305175781
10.095000267028809
10.46500015258789
10.272500038146973
10.050000190734863
10.024999618530273
10.71500015258789
10.295000076293945
10.5600004196167
10.447500228881836
10.574999809265137
10.557499885559082
10.369999885559082
10.142499923706055
10.529999732971191
10.180000305175781
10.604999542236328
10.492500305175781
10.367500305175781
10.02750015258789
10.2475004196167
10.505000114440918
9.984999656677246
10.319999694824219
10.479999542236328
10.765000343322754
10.454999923706055
10.5024995803833
10.532500267028809
10.420000076293945
10.282500267028809
10.537500381469727
10.407500267028809
10.192500114440918
10.265000343322754
10.6850004196167
10.717499732971191
10.4399995803833
10.619999885559082
10.552499771118164
10.452500343322754
10.21500015258789
10.4375
10.612500190734863
10.295000076293945
10.237500190734863
10.647500038146973
10.487500190734863
10.567500114440918
10.345000267028809
10.412500381469727
10.289999961853027
10.444999694824219
10.477499961853027
10.567500114440918
10.72249984741211
10.072500228881836
10.557499885559082
10.694999694824219
10.432499885559082
10.632499694824219
10.427499771118164
10.350000381469727
10.569999694824219
10.592499732971191
10.524999618530273
10.557499885559082
10.635000228881836
10.510000228881836
10.3774995803833
9.989999771118164
10.397500038146973
10.710000038146973
10.119999885559082
10.047499656677246
10.585000038146973
10.457500457763672
10.274999618530273
10.104999542236328
10.257499694824219
10.337499618530273
10.46500015258789
10.897500038146973
10.489999771118164
10.369999885559082
10.614999771118164
10.172499656677246
10.537500381469727
10.135000228881836
9.807499885559082
9.850000381469727
9.987500190734863
10.507499694824219
10.53499984741211
10.09749984741211
10.307499885559082
10.649999618530273
10.162500381469727
10.7475004196167
10.487500190734863
10.22249984741211
10.720000267028809
10.359999656677246
10.072500228881836
10.47249984741211
10.664999961853027
10.539999961853027
10.367500305175781
10.899999618530273
10.647500038146973
10.704999923706055
10.477499961853027
10.914999961853027
10.640000343322754
10.507499694824219
10.2475004196167
10.380000114440918
10.492500305175781
10.675000190734863
10.114999771118164
10.270000457763672
10.15999984741211
10.199999809265137
10.295000076293945
10.77750015258789
10.842499732971191
10.649999618530273
10.5649995803833
10.537500381469727
10.552499771118164
10.614999771118164
10.482500076293945
10.569999694824219
10.697500228881836
10.529999732971191
10.520000457763672
10.454999923706055
10.267499923706055
10.354999542236328
10.470000267028809
10.239999771118164
10.40999984741211
10.449999809265137
10.449999809265137
10.645000457763672
10.3725004196167
10.720000267028809
10.832500457763672
10.65999984741211
10.420000076293945
10.702500343322754
10.742500305175781
10.755000114440918
10.72249984741211
10.067500114440918
10.412500381469727
10.515000343322754
10.21500015258789
10.069999694824219
10.832500457763672
10.555000305175781
10.385000228881836
10.602499961853027
10.727499961853027
10.475000381469727
10.522500038146973
10.8125
10.412500381469727
10.617500305175781
10.572500228881836
10.822500228881836
10.742500305175781
10.229999542236328
10.267499923706055
9.9350004196167
10.46500015258789
10.772500038146973
10.787500381469727
10.6225004196167
10.617500305175781
10.907500267028809
10.702500343322754
10.579999923706055
10.225000381469727
10.21500015258789
10.457500457763672
10.952500343322754
10.577500343322754
10.524999618530273
10.322500228881836
10.357500076293945
10.4975004196167
10.532500267028809
10.180000305175781
10.369999885559082
10.807499885559082
10.385000228881836
10.260000228881836
10.357500076293945
10.4975004196167
10.9399995803833
10.5
10.670000076293945
10.822500228881836
10.8774995803833
10.444999694824219
10.292499542236328
10.227499961853027
10.532500267028809
10.789999961853027
10.274999618530273
10.707500457763672
10.744999885559082
10.612500190734863
10.34000015258789
10.292499542236328
10.237500190734863
10.390000343322754
10.882499694824219
10.595000267028809
10.772500038146973
10.40999984741211
10.482500076293945
10.617500305175781
10.532500267028809
10.4399995803833
10.619999885559082
11.045000076293945
10.572500228881836
10.297499656677246
10.755000114440918
10.757499694824219
10.607500076293945
10.369999885559082
10.59749984741211
10.4375
10.512499809265137
9.97249984741211
10.282500267028809
10.704999923706055
10.479999542236328
10.489999771118164
10.692500114440918
10.782500267028809
10.432499885559082
10.632499694824219
10.662500381469727
10.587499618530273
10.587499618530273
10.225000381469727
10.262499809265137
10.65250015258789
10.587499618530273
10.204999923706055
10.375
10.462499618530273
10.880000114440918
10.762499809265137
10.345000267028809
10.897500038146973
11.007499694824219
10.852499961853027
10.710000038146973
10.835000038146973
10.329999923706055
10.119999885559082
10.430000305175781
10.399999618530273
10.454999923706055
10.425000190734863
10.482500076293945
10.837499618530273
10.272500038146973
10.482500076293945
10.395000457763672
10.539999961853027
10.442500114440918
10.890000343322754
10.925000190734863
10.585000038146973
10.612500190734863
10.729999542236328
10.364999771118164
10.279999732971191
10.65999984741211
10.479999542236328
10.350000381469727
10.28499984741211
10.662500381469727
10.632499694824219
10.329999923706055
10.609999656677246
10.604999542236328
10.542499542236328
10.520000457763672
10.795000076293945
10.524999618530273
10.257499694824219
10.462499618530273
10.630000114440918
10.46500015258789
10.404999732971191
10.805000305175781
10.087499618530273
10.492500305175781
10.942500114440918
10.862500190734863
10.677499771118164
10.712499618530273
10.357500076293945
10.444999694824219
10.229999542236328
10.342499732971191
10.602499961853027
10.827500343322754
10.739999771118164
10.9399995803833
10.4399995803833
10.640000343322754
10.672499656677246
10.302499771118164
10.354999542236328
10.267499923706055
10.779999732971191
10.354999542236328
10.710000038146973
10.479999542236328
10.475000381469727
10.892499923706055
10.854999542236328
10.699999809265137
10.729999542236328
10.59749984741211
10.770000457763672
10.34749984741211
10.6850004196167
10.712499618530273
10.837499618530273
10.417499542236328
10.425000190734863
10.4350004196167
10.337499618530273
10.532500267028809
10.457500457763672
10.744999885559082
10.797499656677246
10.53499984741211
10.607500076293945
10.417499542236328
10.295000076293945
10.65250015258789
10.792499542236328
10.887499809265137
10.725000381469727
10.545000076293945
10.829999923706055
10.982500076293945
10.710000038146973
10.5649995803833
10.6274995803833
10.505000114440918
10.337499618530273
10.494999885559082
10.255000114440918
10.59000015258789
10.680000305175781
10.545000076293945
10.727499961853027
10.545000076293945
10.614999771118164
10.7475004196167
10.795000076293945
10.5024995803833
10.4399995803833
10.25
10.552499771118164
10.672499656677246
10.602499961853027
10.380000114440918
10.770000457763672
10.774999618530273
10.960000038146973
10.805000305175781
10.270000457763672
10.342499732971191
11.072500228881836
11.007499694824219
10.837499618530273
10.802499771118164
10.852499961853027
11.09749984741211
11.029999732971191
10.704999923706055
10.520000457763672
10.239999771118164
10.359999656677246
10.857500076293945
10.324999809265137
10.385000228881836
10.595000267028809
10.675000190734863
10.885000228881836
10.744999885559082
10.7475004196167
10.395000457763672
10.550000190734863
10.467499732971191
10.78499984741211
10.585000038146973
10.895000457763672
10.460000038146973
10.71500015258789
11.074999809265137
11.047499656677246
10.755000114440918
10.612500190734863
10.994999885559082
11.079999923706055
10.470000267028809
10.904999732971191
10.262499809265137
10.862500190734863
10.210000038146973
11.0649995803833
10.577500343322754
10.702500343322754
10.755000114440918
10.8725004196167
10.582500457763672
10.920000076293945
10.532500267028809
10.487500190734863
10.914999961853027
10.729999542236328
10.772500038146973
10.952500343322754
10.979999542236328
10.880000114440918
10.774999618530273
10.532500267028809
10.632499694824219
10.932499885559082
10.672499656677246
10.742500305175781
10.725000381469727
10.267499923706055
10.617500305175781
10.742500305175781
11.005000114440918
10.632499694824219
10.744999885559082
10.967499732971191
10.97249984741211
10.932499885559082
10.744999885559082
10.897500038146973
10.697500228881836
10.587499618530273
11.2475004196167
10.680000305175781
10.954999923706055
11.104999542236328
10.694999694824219
10.484999656677246
10.885000228881836
10.5625
10.600000381469727
10.6875
10.827500343322754
10.654999732971191
10.97249984741211
11.055000305175781
10.744999885559082
10.7475004196167
10.984999656677246
10.582500457763672
10.385000228881836
10.319999694824219
10.612500190734863
10.595000267028809
10.760000228881836
10.982500076293945
10.732500076293945
10.954999923706055
10.53499984741211
10.567500114440918
10.65999984741211
10.460000038146973
10.947500228881836
10.555000305175781
10.395000457763672
10.327500343322754
10.524999618530273
10.694999694824219
10.797499656677246
11.125
10.755000114440918
10.414999961853027
10.332500457763672
10.729999542236328
10.767499923706055
10.770000457763672
10.637499809265137
10.675000190734863
10.982500076293945
10.977499961853027
10.537500381469727
10.522500038146973
10.817500114440918
10.454999923706055
10.742500305175781
10.520000457763672
10.899999618530273
10.852499961853027
10.270000457763672
10.867500305175781
10.699999809265137
11.274999618530273
11.082500457763672
11.047499656677246
10.920000076293945
10.837499618530273
10.345000267028809
10.654999732971191
10.642499923706055
10.694999694824219
10.699999809265137
10.824999809265137
10.842499732971191
10.397500038146973
10.177499771118164
10.854999542236328
10.792499542236328
10.757499694824219
10.762499809265137
10.817500114440918
10.4375
10.6899995803833
11.0
10.742500305175781
10.484999656677246
10.7475004196167
10.732500076293945
10.6899995803833
10.920000076293945
10.84000015258789
10.887499809265137
10.707500457763672
10.532500267028809
10.46500015258789
10.654999732971191
10.617500305175781
10.667499542236328
10.842499732971191
10.055000305175781
10.292499542236328
10.885000228881836
11.102499961853027
10.59749984741211
10.829999923706055
10.692500114440918
10.662500381469727
10.40250015258789
10.414999961853027
11.005000114440918
11.005000114440918
10.647500038146973
10.6899995803833
10.542499542236328
10.672499656677246
10.904999732971191
10.864999771118164
10.699999809265137
11.145000457763672
11.092499732971191
10.982500076293945
10.734999656677246
10.795000076293945
10.710000038146973
10.890000343322754
11.130000114440918
10.8125
10.744999885559082
10.982500076293945
10.857500076293945
10.617500305175781
10.677499771118164
10.337499618530273
10.507499694824219
10.739999771118164
10.7524995803833
10.582500457763672
10.927499771118164
11.0
10.547499656677246
10.8774995803833
10.710000038146973
10.432499885559082
10.550000190734863
10.595000267028809
10.979999542236328
10.507499694824219
10.522500038146973
10.932499885559082
11.050000190734863
10.930000305175781
10.84000015258789
10.829999923706055
11.092499732971191
10.757499694824219
10.862500190734863
10.654999732971191
10.859999656677246
10.649999618530273
10.925000190734863
10.529999732971191
10.930000305175781
10.817500114440918
10.757499694824219
11.039999961853027
10.507499694824219
10.545000076293945
10.522500038146973
10.755000114440918
10.77750015258789
10.975000381469727
10.667499542236328
10.682499885559082
10.65250015258789
10.6875
10.782500267028809
11.15250015258789
10.569999694824219
10.675000190734863
10.772500038146973
11.0024995803833
10.77750015258789
11.069999694824219
11.050000190734863
10.574999809265137
10.762499809265137
10.6225004196167
10.59749984741211
10.487500190734863
10.647500038146973
10.270000457763672
10.407500267028809
10.592499732971191
10.600000381469727
10.922499656677246
10.569999694824219
10.442500114440918
10.6850004196167
10.632499694824219
10.369999885559082
10.307499885559082
10.34749984741211
10.40999984741211
10.359999656677246
10.765000343322754
10.505000114440918
10.7524995803833
10.770000457763672
10.982500076293945
11.22249984741211
11.175000190734863
10.657500267028809
10.614999771118164
10.625
10.6899995803833
10.5
10.579999923706055
10.782500267028809
11.09749984741211
11.02750015258789
10.78499984741211
10.954999923706055
11.095000267028809
11.227499961853027
10.795000076293945
10.802499771118164
10.637499809265137
10.760000228881836
10.922499656677246
10.520000457763672
10.8774995803833
10.725000381469727
10.657500267028809
10.40250015258789
10.507499694824219
10.147500038146973
10.592499732971191
11.0024995803833
10.912500381469727
10.6274995803833
11.02750015258789
10.555000305175781
10.7524995803833
10.342499732971191
11.225000381469727
11.117500305175781
10.550000190734863
10.739999771118164
10.96500015258789
11.09749984741211
10.942500114440918
10.842499732971191
10.897500038146973
10.772500038146973
10.992500305175781
10.6274995803833
10.819999694824219
10.9350004196167
10.572500228881836
10.75
10.845000267028809
10.72249984741211
10.4399995803833
10.329999923706055
11.0024995803833
10.817500114440918
10.6850004196167
10.47249984741211
10.762499809265137
10.819999694824219
10.8149995803833
10.827500343322754
10.399999618530273
10.867500305175781
11.09749984741211
10.932499885559082
10.977499961853027
10.8774995803833
10.782500267028809
11.057499885559082
